0,8.02
0.004,8.068
0.008,8.056
0.012,8.036
0.016,8.016
0.02,8.076
0.024,8.088
0.028,8.056
0.032,8.084
0.036,8.088
0.04,8.048
0.044,8.064
0.048,8.072
0.052,8.068
0.056,8.06
0.06,8.088
0.064,8.072
0.068,8.128
0.072,8.108
0.076,8.076
0.08,8.104
0.084,8.128
0.088,8.152
0.092,8.136
0.096,8.132
0.1,8.148
0.104,8.188
0.108,8.188
0.112,8.244
0.116,8.324
0.12,8.332
0.124,8.28
0.128,8.268
0.132,8.452
0.136,8.432
0.14,8.368
0.144,8.268
0.148,8.308
0.152,8.504
0.156,8.536
0.16,8.444
0.164,8.456
0.168,8.456
0.172,8.492
0.176,8.472
0.18,8.504
0.184,8.72
0.188,8.916
0.192,8.76
0.196,8.532
0.2,8.64
0.204,8.656
0.208,8.544
0.212,8.36
0.216,8.388
0.22,8.484
0.224,8.516
0.228,8.5
0.232,8.392
0.236,8.32
0.24,8.288
0.244,8.208
0.248,8.176
0.252,8.12
0.256,8.132
0.26,8.168
0.264,8.164
0.268,8.172
0.272,8.1
0.276,8.12
0.28,8.188
0.284,8.256
0.288,8.26
0.292,8.108
0.296,7.956
0.3,8.036
0.304,8.104
0.308,8.152
0.312,8.184
0.316,8.14
0.32,8.124
0.324,8.172
0.328,8.052
0.332,7.988
0.336,8
0.34,8.072
0.344,8.096
0.348,8.12
0.352,8.072
0.356,8.116
0.36,8.02
0.364,7.872
0.368,8.06
0.372,8.136
0.376,8.24
0.38,8.332
0.384,8.4
0.388,8.108
0.392,8.148
0.396,8.136
0.4,8.252
0.404,8.264
0.408,8.188
0.412,7.98
0.416,8.024
0.42,8.072
0.424,8.02
0.428,8.128
0.432,8.148
0.436,8.02
0.44,7.936
0.444,7.924
0.448,7.98
0.452,8.072
0.456,8.124
0.46,7.904
0.464,7.9
0.468,8.052
0.472,7.896
0.476,7.952
0.48,7.928
0.484,7.78
0.488,7.844
0.492,7.84
0.496,7.812
0.5,7.9
0.504,7.892
0.508,7.88
0.512,7.932
0.516,7.888
0.52,7.788
0.524,7.812
0.528,7.896
0.532,7.84
0.536,7.848
0.54,7.732
0.544,7.72
0.548,7.728
0.552,7.796
0.556,7.844
0.56,7.984
0.564,7.868
0.568,7.816
0.572,7.912
0.576,7.868
0.58,7.848
0.584,7.888
0.588,8.02
0.592,8.028
0.596,8.004
0.6,8.124
0.604,8.04
0.608,7.952
0.612,7.956
0.616,7.832
0.62,7.8
0.624,7.82
0.628,7.852
0.632,7.804
0.636,7.604
0.64,7.52
0.644,7.656
0.648,7.636
0.652,7.592
0.656,7.624
0.66,7.692
0.664,7.688
0.668,7.628
0.672,7.588
0.676,7.508
0.68,7.544
0.684,7.56
0.688,7.612
0.692,7.636
0.696,7.644
0.7,7.832
0.704,7.992
0.708,8.188
0.712,8.384
0.716,8.604
0.72,8.544
0.724,8.584
0.728,8.504
0.732,8.076
0.736,7.512
0.74,6.772
0.744,6.312
0.748,6.224
0.752,6.264
0.756,6.508
0.76,6.792
0.764,7.012
0.768,7.284
0.772,7.404
0.776,7.412
0.78,7.492
0.784,7.624
0.788,7.644
0.792,7.668
0.796,7.664
0.8,7.72
0.804,7.78
0.808,7.692
0.812,7.628
0.816,7.688
0.82,7.672
0.824,7.708
0.828,7.672
0.832,7.7
0.836,7.764
0.84,7.716
0.844,7.728
0.848,7.652
0.852,7.688
0.856,7.716
0.86,7.728
0.864,7.724
0.868,7.8
0.872,7.788
0.876,7.74
0.88,7.74
0.884,7.816
0.888,7.816
0.892,7.804
0.896,7.852
0.9,7.828
0.904,7.78
0.908,7.788
0.912,7.828
0.916,7.852
0.92,7.868
0.924,7.864
0.928,7.876
0.932,7.964
0.936,7.972
0.94,7.932
0.944,8.084
0.948,8.032
0.952,8.024
0.956,8.008
0.96,8.072
0.964,8.04
0.968,8.084
0.972,8.236
0.976,8.124
0.98,8.188
0.984,8.328
0.988,8.376
0.992,8.236
0.996,8.244
1,8.352
1.004,8.396
1.008,8.268
1.012,8.256
1.016,8.264
1.02,8.24
1.024,8.26
1.028,8.244
1.032,8.224
1.036,8.212
1.04,8.104
1.044,8.128
1.048,8.112
1.052,8.112
1.056,8.084
1.06,7.988
1.064,7.856
1.068,7.86
1.072,7.852
1.076,7.804
1.08,7.832
1.084,7.968
1.088,7.88
1.092,7.832
1.096,7.8
1.1,7.792
1.104,7.832
1.108,7.876
1.112,7.828
1.116,7.752
1.12,7.8
1.124,7.832
1.128,7.832
1.132,7.816
1.136,7.768
1.14,7.748
1.144,7.772
1.148,7.828
1.152,7.788
1.156,7.824
1.16,7.8
1.164,7.848
1.168,7.856
1.172,7.816
1.176,7.812
1.18,7.76
1.184,7.816
1.188,7.916
1.192,7.856
1.196,7.832
1.2,7.816
1.204,7.804
1.208,7.868
1.212,7.964
1.216,7.928
1.22,7.836
1.224,7.836
1.228,7.792
1.232,7.82
1.236,7.96
1.24,7.932
1.244,7.876
1.248,7.736
1.252,7.812
1.256,7.92
1.26,7.868
1.264,7.852
1.268,7.82
1.272,7.86
1.276,7.836
1.28,7.8
1.284,7.836
1.288,7.828
1.292,7.868
1.296,7.884
1.3,7.796
1.304,7.836
1.308,7.908
1.312,7.896
1.316,7.9
1.32,7.84
1.324,7.86
1.328,7.816
1.332,7.732
1.336,7.8
1.34,7.94
1.344,7.916
1.348,7.896
1.352,7.92
1.356,7.836
1.36,7.824
1.364,7.84
1.368,7.936
1.372,7.96
1.376,7.952
1.38,7.98
1.384,7.988
1.388,7.992
1.392,8.068
1.396,8.092
1.4,8.128
1.404,8.16
1.408,8.172
1.412,8.12
1.416,8.132
1.42,8.148
1.424,8.172
1.428,8.108
1.432,8.104
1.436,8.16
1.44,8.104
1.444,7.944
1.448,7.92
1.452,7.86
1.456,7.948
1.46,7.872
1.464,7.804
1.468,7.896
1.472,7.932
1.476,7.86
1.48,7.812
1.484,7.824
1.488,7.856
1.492,7.844
1.496,7.796
1.5,7.864
1.504,7.9
1.508,7.852
1.512,7.9
1.516,8.004
1.52,8.276
1.524,8.444
1.528,8.588
1.532,8.924
1.536,8.964
1.54,8.94
1.544,8.94
1.548,8.656
1.552,8.084
1.556,7.368
1.56,6.776
1.564,6.452
1.568,6.508
1.572,6.84
1.576,7.164
1.58,7.272
1.584,7.436
1.588,7.736
1.592,7.952
1.596,7.864
1.6,7.836
1.604,7.836
1.608,7.896
1.612,7.956
1.616,8.028
1.62,8.02
1.624,7.968
1.628,7.924
1.632,8.004
1.636,8.044
1.64,8
1.644,8.02
1.648,7.98
1.652,7.984
1.656,8.024
1.66,8.024
1.664,8.004
1.668,8.052
1.672,8.052
1.676,7.984
1.68,7.976
1.684,8.064
1.688,8.092
1.692,8.044
1.696,8.056
1.7,8.096
1.704,8.064
1.708,8.068
1.712,8.156
1.716,8.112
1.72,8.176
1.724,8.104
1.728,8.1
1.732,8.112
1.736,8.144
1.74,8.184
1.744,8.22
1.748,8.208
1.752,8.34
1.756,8.356
1.76,8.264
1.764,8.248
1.768,8.304
1.772,8.348
1.776,8.42
1.78,8.456
1.784,8.416
1.788,8.44
1.792,8.488
1.796,8.552
1.8,8.532
1.804,8.54
1.808,8.56
1.812,8.608
1.816,8.664
1.82,8.704
1.824,8.66
1.828,8.608
1.832,8.612
1.836,8.664
1.84,8.632
1.844,8.56
1.848,8.548
1.852,8.536
1.856,8.5
1.86,8.512
1.864,8.468
1.868,8.472
1.872,8.444
1.876,8.308
1.88,8.256
1.884,8.196
1.888,8.288
1.892,8.248
1.896,8.204
1.9,8.14
1.904,8.2
1.908,8.284
1.912,8.148
1.916,8.104
1.92,8.1
1.924,8.156
1.928,8.136
1.932,8.124
1.936,8.192
1.94,8.104
1.944,8.032
1.948,8.104
1.952,8.108
1.956,8.1
1.96,8.068
1.964,8.08
1.968,8.12
1.972,8.184
1.976,8.164
1.98,8.208
1.984,8.128
1.988,8.108
1.992,8.08
1.996,8.128
2,8.168
2.004,8.144
2.008,8.132
2.012,8.06
2.016,8.064
2.02,8.26
2.024,8.168
2.028,8.1
2.032,8.136
2.036,8.12
2.04,8.176
2.044,8.192
2.048,8.144
2.052,8.14
2.056,8.16
2.06,8.236
2.064,8.124
2.068,8.056
2.072,8.092
2.076,8.136
2.08,8.168
2.084,8.128
2.088,8.196
2.092,8.224
2.096,8.252
2.1,8.236
2.104,8.172
2.108,8.184
2.112,8.188
2.116,8.204
2.12,8.096
2.124,8.068
2.128,8.22
2.132,8.208
2.136,8.172
2.14,8.236
2.144,8.184
2.148,8.128
2.152,8.26
2.156,8.292
2.16,8.144
2.164,8.08
2.168,8.152
2.172,8.192
2.176,8.192
2.18,8.14
2.184,8.1
2.188,8.196
2.192,8.324
2.196,8.344
2.2,8.4
2.204,8.388
2.208,8.404
2.212,8.324
2.216,8.4
2.22,8.384
2.224,8.248
2.228,8.244
2.232,8.344
2.236,8.392
2.24,8.316
2.244,8.268
2.248,8.268
2.252,8.372
2.256,8.404
2.26,8.364
2.264,8.36
2.268,8.328
2.272,8.344
2.276,8.316
2.28,8.236
2.284,8.228
2.288,8.224
2.292,8.128
2.296,8.092
2.3,8.1
2.304,8.124
2.308,8.112
2.312,8.1
2.316,8.128
2.32,8.076
2.324,8.088
2.328,8.196
2.332,8.24
2.336,8.124
2.34,8.172
2.344,8.368
2.348,8.464
2.352,8.62
2.356,8.892
2.36,9.02
2.364,8.956
2.368,8.944
2.372,9.096
2.376,8.68
2.38,7.92
2.384,7.196
2.388,6.712
2.392,6.54
2.396,6.54
2.4,6.928
2.404,7.392
2.408,7.52
2.412,7.68
2.416,7.804
2.42,7.932
2.424,7.94
2.428,7.944
2.432,8.076
2.436,8.212
2.44,8.152
2.444,7.988
2.448,7.984
2.452,8.112
2.456,8.196
2.46,8.22
2.464,8.14
2.468,8.056
2.472,8.044
2.476,8.124
2.48,8.184
2.484,8.228
2.488,8.18
2.492,8.12
2.496,8.12
2.5,8.16
2.504,8.196
2.508,8.148
2.512,8.196
2.516,8.16
2.52,8.152
2.524,8.152
2.528,8.26
2.532,8.248
2.536,8.184
2.54,8.176
2.544,8.208
2.548,8.248
2.552,8.288
2.556,8.276
2.56,8.232
2.564,8.22
2.568,8.248
2.572,8.296
2.576,8.324
2.58,8.312
2.584,8.38
2.588,8.488
2.592,8.476
2.596,8.416
2.6,8.328
2.604,8.504
2.608,8.632
2.612,8.608
2.616,8.536
2.62,8.588
2.624,8.604
2.628,8.624
2.632,8.636
2.636,8.752
2.64,8.776
2.644,8.692
2.648,8.644
2.652,8.688
2.656,8.784
2.66,8.716
2.664,8.644
2.668,8.624
2.672,8.696
2.676,8.632
2.68,8.624
2.684,8.552
2.688,8.536
2.692,8.444
2.696,8.436
2.7,8.42
2.704,8.324
2.708,8.368
2.712,8.34
2.716,8.304
2.72,8.3
2.724,8.268
2.728,8.292
2.732,8.184
2.736,8.164
2.74,8.248
2.744,8.248
2.748,8.136
2.752,8.12
2.756,8.312
2.76,8.344
2.764,8.256
2.768,8.26
2.772,8.192
2.776,8.132
2.78,8.12
2.784,8.176
2.788,8.196
2.792,8.136
2.796,8.132
2.8,8.12
2.804,8.056
2.808,8.136
2.812,8.208
2.816,8.256
2.82,8.268
2.824,8.324
2.828,8.3
2.832,8.164
2.836,8.112
2.84,8.08
2.844,8.048
2.848,8.14
2.852,8.292
2.856,8.256
2.86,8.184
2.864,8.216
2.868,8.256
2.872,8.228
2.876,8.268
2.88,8.368
2.884,8.404
2.888,8.36
2.892,8.256
2.896,8.272
2.9,8.328
2.904,8.36
2.908,8.36
2.912,8.328
2.916,8.184
2.92,8.132
2.924,8.084
2.928,8.028
2.932,8.136
2.936,8.12
2.94,8.04
2.944,7.956
2.948,7.9
2.952,8.092
2.956,8.172
2.96,8.04
2.964,8.076
2.968,8.068
2.972,8.012
2.976,7.976
2.98,8.024
2.984,8.028
2.988,8.088
2.992,8.284
2.996,8.388
3,8.352
3.004,8.184
3.008,8.16
3.012,8.18
3.016,8.176
3.02,8.224
3.024,8.308
3.028,8.24
3.032,8.264
3.036,8.284
3.04,8.252
3.044,8.28
3.048,8.392
3.052,8.452
3.056,8.38
3.06,8.468
3.064,8.444
3.068,8.464
3.072,8.404
3.076,8.372
3.08,8.356
3.084,8.34
3.088,8.264
3.092,8.208
3.096,8.24
3.1,8.272
3.104,8.224
3.108,8.132
3.112,8.064
3.116,7.988
3.12,7.9
3.124,7.992
3.128,8.096
3.132,8.08
3.136,8.128
3.14,8.092
3.144,8.08
3.148,8.352
3.152,8.36
3.156,7.976
3.16,7.856
3.164,7.936
3.168,8.148
3.172,8.344
3.176,8.456
3.18,8.616
3.184,8.78
3.188,8.72
3.192,8.468
3.196,8.52
3.2,8.388
3.204,7.764
3.208,7.232
3.212,6.736
3.216,6.38
3.22,6.5
3.224,6.744
3.228,6.924
3.232,7.132
3.236,7.484
3.24,7.732
3.244,7.924
3.248,8.116
3.252,8.084
3.256,7.952
3.26,8.02
3.264,8.056
3.268,8.004
3.272,8.084
3.276,8.108
3.28,8.096
3.284,8.06
3.288,8.076
3.292,7.996
3.296,7.956
3.3,8.056
3.304,8.176
3.308,8.212
3.312,8.096
3.316,8.028
3.32,8.136
3.324,8.192
3.328,8.18
3.332,8.176
3.336,8.068
3.34,8.048
3.344,8.088
3.348,8.144
3.352,8.144
3.356,8.16
3.36,8.092
3.364,8.136
3.368,8.224
3.372,8.308
3.376,8.256
3.38,8.148
3.384,8.196
3.388,8.316
3.392,8.28
3.396,8.276
3.4,8.296
3.404,8.272
3.408,8.324
3.412,8.348
3.416,8.36
3.42,8.5
3.424,8.532
3.428,8.44
3.432,8.324
3.436,8.452
3.44,8.548
3.444,8.468
3.448,8.572
3.452,8.764
3.456,8.676
3.46,8.572
3.464,8.564
3.468,8.636
3.472,8.74
3.476,8.676
3.48,8.624
3.484,8.536
3.488,8.656
3.492,8.708
3.496,8.652
3.5,8.656
3.504,8.568
3.508,8.492
3.512,8.532
3.516,8.436
3.52,8.412
3.524,8.392
3.528,8.332
3.532,8.268
3.536,8.256
3.54,8.148
3.544,8.184
3.548,8.232
3.552,8.104
3.556,8.052
3.56,8.088
3.564,8.112
3.568,8.176
3.572,8.132
3.576,8.02
3.58,8.008
3.584,8.064
3.588,8.06
3.592,8.116
3.596,8.256
3.6,8.264
3.604,8.12
3.608,7.936
3.612,7.908
3.616,8.084
3.62,8.2
3.624,8.076
3.628,8
3.632,8.192
3.636,8.088
3.64,7.968
3.644,8.068
3.648,8.14
3.652,8.1
3.656,7.976
3.66,8.056
3.664,8.12
3.668,8.16
3.672,8.168
3.676,8.124
3.68,7.952
3.684,8.1
3.688,8.192
3.692,8.02
3.696,8.052
3.7,8.1
3.704,8.196
3.708,8.184
3.712,8.12
3.716,8.072
3.72,8.204
3.724,8.344
3.728,8.248
3.732,7.988
3.736,7.856
3.74,8.092
3.744,8.168
3.748,8.16
3.752,8.084
3.756,8.116
3.76,8.268
3.764,8.236
3.768,8.14
3.772,8.164
3.776,8.096
3.78,8.128
3.784,8.204
3.788,8.264
3.792,8.124
3.796,7.964
3.8,8.052
3.804,8.064
3.808,8.084
3.812,8.148
3.816,8.248
3.82,8.268
3.824,8.164
3.828,8.008
3.832,7.988
3.836,8.028
3.84,8.076
3.844,8.116
3.848,8.036
3.852,8.076
3.856,8.156
3.86,8.188
3.864,8.212
3.868,8.2
3.872,8.284
3.876,8.212
3.88,8.18
3.884,8.236
3.888,8.308
3.892,8.344
3.896,8.344
3.9,8.264
3.904,8.292
3.908,8.476
3.912,8.376
3.916,8.256
3.92,8.336
3.924,8.436
3.928,8.352
3.932,8.352
3.936,8.34
3.94,8.272
3.944,8.152
3.948,8.06
3.952,7.992
3.956,7.972
3.96,8.032
3.964,8.132
3.968,8.12
3.972,8.028
3.976,7.956
3.98,8.024
3.984,8.12
3.988,8.072
3.992,7.96
3.996,8.024
4,8.024
4.004,8.096
4.008,8.236
4.012,8.204
4.016,8.172
4.02,8.348
4.024,8.544
4.028,8.776
4.032,8.792
4.036,8.716
4.04,8.624
4.044,8.392
4.048,8
4.052,7.336
4.056,6.58
4.06,6.34
4.064,6.436
4.068,6.744
4.072,7.112
4.076,7.156
4.08,7.356
4.084,7.828
4.088,7.98
4.092,7.976
4.096,7.948
4.1,8.056
4.104,8.16
4.108,8.036
4.112,7.992
4.116,8.004
4.12,8.184
4.124,8.276
4.128,8.3
4.132,8.176
4.136,8.096
4.14,8.156
4.144,8.188
4.148,8.188
4.152,8.18
4.156,7.968
4.16,7.944
4.164,8.168
4.168,8.24
4.172,8.204
4.176,8
4.18,7.976
4.184,8.064
4.188,8.22
4.192,8.22
4.196,8.116
4.2,8.148
4.204,8.144
4.208,8.08
4.212,8.112
4.216,8.192
4.22,8.288
4.224,8.288
4.228,8.192
4.232,8.088
4.236,8.236
4.24,8.284
4.244,8.24
4.248,8.3
4.252,8.26
4.256,8.12
4.26,8.192
4.264,8.344
4.268,8.36
4.272,8.412
4.276,8.64
4.28,8.628
4.284,8.48
4.288,8.36
4.292,8.456
4.296,8.604
4.3,8.72
4.304,8.876
4.308,8.792
4.312,8.58
4.316,8.576
4.32,8.66
4.324,8.636
4.328,8.496
4.332,8.472
4.336,8.644
4.34,8.8
4.344,8.74
4.348,8.492
4.352,8.388
4.356,8.308
4.36,8.288
4.364,8.3
4.368,8.316
4.372,8.34
4.376,8.34
4.38,8.212
4.384,8.068
4.388,8.048
4.392,8.228
4.396,8.312
4.4,8.292
4.404,8.076
4.408,7.968
4.412,8.04
4.416,8.088
4.42,8.188
4.424,8.084
4.428,7.852
4.432,7.98
4.436,8.188
4.44,8.276
4.444,7.976
4.448,7.92
4.452,8.092
4.456,7.976
4.46,8.032
4.464,8.248
4.468,8.228
4.472,8.168
4.476,8.028
4.48,7.96
4.484,7.96
4.488,8.12
4.492,8.228
4.496,8.128
4.5,8.152
4.504,8.072
4.508,8.008
4.512,8.068
4.516,7.988
4.52,8.1
4.524,8.356
4.528,8.308
4.532,8.108
4.536,8.1
4.54,8.088
4.544,8.116
4.548,8.136
4.552,8.28
4.556,8.136
4.56,7.96
4.564,8.056
4.568,8.144
4.572,8.06
4.576,8.076
4.58,8.108
4.584,8.196
4.588,8.312
4.592,8.308
4.596,8.108
4.6,8.088
4.604,8.164
4.608,8.08
4.612,8.048
4.616,8.168
4.62,8.172
4.624,8.048
4.628,7.992
4.632,8.212
4.636,8.244
4.64,8.112
4.644,7.992
4.648,8.072
4.652,8.148
4.656,8.124
4.66,8.028
4.664,8.028
4.668,8.096
4.672,8.192
4.676,8.308
4.68,8.104
4.684,8.032
4.688,8.22
4.692,8.352
4.696,8.168
4.7,7.988
4.704,7.944
4.708,7.98
4.712,8.032
4.716,8.056
4.72,8.044
4.724,8.224
4.728,8.324
4.732,8.3
4.736,8.268
4.74,8.132
4.744,8.296
4.748,8.4
4.752,8.44
4.756,8.18
4.76,8.1
4.764,8.2
4.768,8.292
4.772,8.372
4.776,8.384
4.78,8.368
4.784,8.408
4.788,8.408
4.792,8.316
4.796,8.2
4.8,8.34
4.804,8.408
4.808,8.332
4.812,8.208
4.816,8.036
4.82,8.044
4.824,8.072
4.828,8.076
4.832,8.06
4.836,8.044
4.84,8.104
4.844,8.116
4.848,8.084
4.852,8.084
4.856,8.024
4.86,7.96
4.864,7.996
4.868,8.08
4.872,8.136
4.876,8.204
4.88,8.096
4.884,8.104
4.888,8.364
4.892,8.572
4.896,8.584
4.9,8.808
4.904,8.72
4.908,8.532
4.912,8.536
4.916,8.232
4.92,7.512
4.924,6.98
4.928,6.54
4.932,6.384
4.936,6.528
4.94,6.852
4.944,7.148
4.948,7.368
4.952,7.66
4.956,7.864
4.96,7.872
4.964,8.084
4.968,8.128
4.972,7.956
4.976,7.912
4.98,8
4.984,8.04
4.988,8.112
4.992,8.072
4.996,8.032
5,8.124
5.004,8.228
5.008,8.176
5.012,8.108
5.016,8.128
5.02,8.1
5.024,8.076
5.028,8.08
5.032,8.092
5.036,8.156
5.04,8.204
5.044,8.268
5.048,8.108
5.052,8.04
5.056,8.14
5.06,8.144
5.064,8.16
5.068,8.236
5.072,8.28
5.076,8.268
5.08,8.184
5.084,8.1
5.088,8.1
5.092,8.144
5.096,8.188
5.1,8.232
5.104,8.304
5.108,8.392
5.112,8.28
5.116,8.316
5.12,8.284
5.124,8.26
5.128,8.288
5.132,8.276
5.136,8.4
5.14,8.42
5.144,8.484
5.148,8.496
5.152,8.504
5.156,8.448
5.16,8.5
5.164,8.584
5.168,8.736
5.172,8.78
5.176,8.7
5.18,8.644
5.184,8.604
5.188,8.632
5.192,8.74
5.196,8.704
5.2,8.712
5.204,8.684
5.208,8.568
5.212,8.452
5.216,8.472
5.22,8.556
5.224,8.476
5.228,8.396
5.232,8.404
5.236,8.38
5.24,8.392
5.244,8.316
5.248,8.236
5.252,8.168
5.256,8.252
5.26,8.3
5.264,8.344
5.268,8.384
5.272,8.328
5.276,8.336
5.28,8.196
5.284,8.18
5.288,8.116
5.292,8.128
5.296,8.076
5.3,8.052
5.304,8
5.308,8
5.312,8.072
5.316,8.08
5.32,8.136
5.324,8.248
5.328,8.2
5.332,8.056
5.336,8.152
5.34,8.304
5.344,8.32
5.348,8.2
5.352,8.164
5.356,8.088
5.36,8.104
5.364,8.22
5.368,8.24
5.372,8.28
5.376,8.26
5.38,8.04
5.384,8.132
5.388,8.288
5.392,8.092
5.396,7.972
5.4,8.212
5.404,8.248
5.408,8.22
5.412,8.132
5.416,8.068
5.42,8.104
5.424,8.236
5.428,8.212
5.432,8.252
5.436,8.16
5.44,8.148
5.444,8.172
5.448,8.148
5.452,8.148
5.456,8.184
5.46,8.308
5.464,8.344
5.468,8.232
5.472,8.024
5.476,8.168
5.48,8.104
5.484,8.116
5.488,8.152
5.492,8.332
5.496,8.416
5.5,8.08
5.504,8.036
5.508,8.1
5.512,8.136
5.516,8.12
5.52,8.18
5.524,8.22
5.528,8.208
5.532,8.172
5.536,8.152
5.54,8.2
5.544,8.168
5.548,8.228
5.552,8.28
5.556,8.192
5.56,8.344
5.564,8.288
5.568,8.12
5.572,7.928
5.576,7.936
5.58,8.064
5.584,8.02
5.588,8.16
5.592,8.26
5.596,8.152
5.6,8.204
5.604,8.3
5.608,8.244
5.612,8.252
5.616,8.348
5.62,8.34
5.624,8.332
5.628,8.276
5.632,8.364
5.636,8.424
5.64,8.416
5.644,8.288
5.648,8.4
5.652,8.548
5.656,8.696
5.66,8.516
5.664,8.36
5.668,8.388
5.672,8.456
5.676,8.456
5.68,8.464
5.684,8.368
5.688,8.112
5.692,8.212
5.696,8.244
5.7,8.092
5.704,8.144
5.708,8.112
5.712,8.08
5.716,7.968
5.72,8.04
5.724,8.1
5.728,8.152
5.732,8.208
5.736,8.076
5.74,8
5.744,8.088
5.748,8.116
5.752,7.96
5.756,8.096
5.76,8.3
5.764,8.708
5.768,8.664
5.772,8.444
5.776,8.544
5.78,8.596
5.784,8.356
5.788,8.456
5.792,8.64
5.796,8.112
5.8,7.344
5.804,6.648
5.808,6.332
5.812,6.328
5.816,6.632
5.82,7.008
5.824,7.216
5.828,7.616
5.832,7.908
5.836,7.98
5.84,8.124
5.844,8.08
5.848,7.788
5.852,7.928
5.856,8.012
5.86,7.944
5.864,8.072
5.868,8.324
5.872,8.184
5.876,8.204
5.88,8.112
5.884,8.096
5.888,8.136
5.892,8.152
5.896,8.184
5.9,8.192
5.904,8.304
5.908,8.212
5.912,8.152
5.916,8.068
5.92,8.064
5.924,8.204
5.928,8.18
5.932,8.224
5.936,8.184
5.94,8.168
5.944,8.2
5.948,8.424
5.952,8.296
5.956,8.196
5.96,8.152
5.964,8.044
5.968,8.096
5.972,8.236
5.976,8.288
5.98,8.352
5.984,8.448
5.988,8.42
5.992,8.34
5.996,8.284
6,8.244
6.004,8.376
6.008,8.512
6.012,8.464
6.016,8.26
6.02,8.468
6.024,8.568
6.028,8.528
6.032,8.492
6.036,8.476
6.04,8.656
6.044,8.628
6.048,8.668
6.052,8.748
6.056,8.872
6.06,8.776
6.064,8.76
6.068,8.624
6.072,8.528
6.076,8.548
6.08,8.536
6.084,8.608
6.088,8.596
6.092,8.66
6.096,8.624
6.1,8.724
6.104,8.748
6.108,8.496
6.112,8.448
6.116,8.472
6.12,8.456
6.124,8.476
6.128,8.464
6.132,8.312
6.136,8.192
6.14,8.192
6.144,8.148
6.148,8.192
6.152,8.28
6.156,8.16
6.16,8.272
6.164,8.14
6.168,8.164
6.172,8.112
6.176,7.824
6.18,8.116
6.184,8.436
6.188,8.356
6.192,8.276
6.196,8.132
6.2,8.216
6.204,8.432
6.208,8.5
6.212,8.116
6.216,7.868
6.22,8.032
6.224,8.096
6.228,8.188
6.232,8.532
6.236,8.44
6.24,8.264
6.244,8.044
6.248,7.976
6.252,8.02
6.256,8.036
6.26,8.196
6.264,8.272
6.268,8.256
6.272,8.18
6.276,8.292
6.28,8.22
6.284,8.188
6.288,8.292
6.292,8.308
6.296,8.276
6.3,8.384
6.304,8.468
6.308,8.204
6.312,7.904
6.316,7.808
6.32,8.136
6.324,8.188
6.328,8.112
6.332,8.116
6.336,8.392
6.34,8.256
6.344,8.18
6.348,8.232
6.352,8.292
6.356,8.296
6.36,8.26
6.364,8.256
6.368,8.152
6.372,8.004
6.376,7.972
6.38,8.148
6.384,8.388
6.388,8.396
6.392,8.308
6.396,8.28
6.4,8.224
6.404,8.412
6.408,8.268
6.412,8.068
6.416,8.072
6.42,8.236
6.424,8.32
6.428,8.088
6.432,8.324
6.436,8.244
6.44,8.052
6.444,8.04
6.448,8.292
6.452,8.42
6.456,8.26
6.46,8.116
6.464,8.212
6.468,8.22
6.472,8.16
6.476,8.248
6.48,8.28
6.484,8.316
6.488,8.28
6.492,8.136
6.496,8.092
6.5,8.36
6.504,8.456
6.508,8.352
6.512,8.228
6.516,8.34
6.52,8.348
6.524,8.344
6.528,8.32
6.532,8.46
6.536,8.544
6.54,8.384
6.544,8.44
6.548,8.516
6.552,8.576
6.556,8.512
6.56,8.408
6.564,8.36
6.568,8.508
6.572,8.508
6.576,8.364
6.58,8.34
6.584,8.448
6.588,8.564
6.592,8.24
6.596,7.976
6.6,7.956
6.604,7.916
6.608,7.988
6.612,8.024
6.616,8.152
6.62,8.14
6.624,8.136
6.628,8.124
6.632,8.096
6.636,8.128
6.64,8.18
6.644,8.128
6.648,8.08
6.652,8.4
6.656,8.664
6.66,8.764
6.664,8.864
6.668,9.128
6.672,8.968
6.676,8.676
6.68,8.476
6.684,7.96
6.688,7.18
6.692,6.64
6.696,6.324
6.7,6.296
6.704,6.628
6.708,7.06
6.712,7.308
6.716,7.488
6.72,7.776
6.724,7.876
6.728,7.912
6.732,7.984
6.736,8.084
6.74,8.22
6.744,8.164
6.748,8.124
6.752,8.156
6.756,8.216
6.76,8.216
6.764,8.152
6.768,8.244
6.772,8.232
6.776,8.124
6.78,8.076
6.784,8.068
6.788,8.188
6.792,8.184
6.796,8.164
6.8,8.108
6.804,8.196
6.808,8.184
6.812,8.14
6.816,8.192
6.82,8.216
6.824,8.272
6.828,8.388
6.832,8.332
6.836,8.156
6.84,8.1
6.844,8.096
6.848,8.14
6.852,8.264
6.856,8.272
6.86,8.272
6.864,8.248
6.868,8.18
6.872,8.316
6.876,8.192
6.88,8.096
6.884,8.376
6.888,8.476
6.892,8.416
6.896,8.36
6.9,8.38
6.904,8.476
6.908,8.424
6.912,8.48
6.916,8.576
6.92,8.712
6.924,8.548
6.928,8.476
6.932,8.576
6.936,8.592
6.94,8.544
6.944,8.676
6.948,8.704
6.952,8.648
6.956,8.576
6.96,8.64
6.964,8.632
6.968,8.568
6.972,8.616
6.976,8.6
6.98,8.592
6.984,8.564
6.988,8.516
6.992,8.62
6.996,8.452
7,8.388
7.004,8.38
7.008,8.332
7.012,8.316
7.016,8.384
7.02,8.32
7.024,8.224
7.028,8.256
7.032,8.244
7.036,8.26
7.04,8.176
7.044,8.188
7.048,8.172
7.052,8.092
7.056,8.104
7.06,8.156
7.064,8.248
7.068,8.192
7.072,8.136
7.076,8.116
7.08,8.156
7.084,8.184
7.088,8.32
7.092,8.224
7.096,8.116
7.1,8.164
7.104,8.212
7.108,8.252
7.112,8.1
7.116,8.14
7.12,8.132
7.124,8.148
7.128,8.056
7.132,8.192
7.136,8.304
7.14,8.328
7.144,8.284
7.148,8.184
7.152,8.116
7.156,8.16
7.16,8.176
7.164,8.096
7.168,8.192
7.172,8.288
7.176,8.292
7.18,8.192
7.184,8.084
7.188,8.232
7.192,8.24
7.196,8.16
7.2,8.084
7.204,8.196
7.208,8.256
7.212,8.188
7.216,8.144
7.22,8.188
7.224,8.104
7.228,8.148
7.232,8.244
7.236,8.212
7.24,8.156
7.244,8.08
7.248,8.18
7.252,8.248
7.256,8.176
7.26,8.112
7.264,8.296
7.268,8.372
7.272,8.236
7.276,8.188
7.28,8.036
7.284,8.064
7.288,8.136
7.292,8.176
7.296,8.244
7.3,8.248
7.304,8.192
7.308,8.088
7.312,8.112
7.316,8.076
7.32,8.076
7.324,8.148
7.328,8.232
7.332,8.264
7.336,8.28
7.34,8.184
7.344,8.088
7.348,8.184
7.352,8.24
7.356,8.316
7.36,8.312
7.364,8.14
7.368,8.104
7.372,8.06
7.376,8.12
7.38,8.2
7.384,8.236
7.388,8.252
7.392,8.24
7.396,8.264
7.4,8.252
7.404,8.236
7.408,8.344
7.412,8.384
7.416,8.336
7.42,8.408
7.424,8.488
7.428,8.44
7.432,8.46
7.436,8.516
7.44,8.484
7.444,8.32
7.448,8.348
7.452,8.392
7.456,8.516
7.46,8.484
7.464,8.316
7.468,8.216
7.472,8.136
7.476,8.152
7.48,8.128
7.484,8.112
7.488,8.12
7.492,8.08
7.496,8.128
7.5,8.116
7.504,8.128
7.508,8.132
7.512,8.088
7.516,8.084
7.52,8.164
7.524,8.112
7.528,8.072
7.532,8.108
7.536,8.212
7.54,8.312
7.544,8.44
7.548,8.568
7.552,8.748
7.556,8.728
7.56,8.504
7.564,8.444
7.568,8.484
7.572,8.14
7.576,7.48
7.58,6.868
7.584,6.436
7.588,6.372
7.592,6.664
7.596,6.956
7.6,7.188
7.604,7.496
7.608,7.676
7.612,7.8
7.616,7.848
7.62,8.06
7.624,8.08
7.628,8.056
7.632,8.084
7.636,8.148
7.64,8.2
7.644,8.06
7.648,8.052
7.652,8.112
7.656,8.148
7.66,8.08
7.664,8.08
7.668,8.068
7.672,8.1
7.676,8.264
7.68,8.228
7.684,8.168
7.688,8.112
7.692,8.188
7.696,8.248
7.7,8.208
7.704,8.16
7.708,8.104
7.712,8.224
7.716,8.2
7.72,8.192
7.724,8.276
7.728,8.236
7.732,8.224
7.736,8.264
7.74,8.248
7.744,8.284
7.748,8.216
7.752,8.252
7.756,8.216
7.76,8.268
7.764,8.3
7.768,8.332
7.772,8.296
7.776,8.34
7.78,8.324
7.784,8.372
7.788,8.424
7.792,8.492
7.796,8.468
7.8,8.456
7.804,8.588
7.808,8.572
7.812,8.564
7.816,8.564
7.82,8.684
7.824,8.684
7.828,8.624
7.832,8.596
7.836,8.664
7.84,8.788
7.844,8.732
7.848,8.744
7.852,8.772
7.856,8.748
7.86,8.716
7.864,8.664
7.868,8.624
7.872,8.652
7.876,8.608
7.88,8.552
7.884,8.488
7.888,8.488
7.892,8.456
7.896,8.368
7.9,8.364
7.904,8.312
7.908,8.356
7.912,8.336
7.916,8.296
7.92,8.244
7.924,8.28
7.928,8.26
7.932,8.192
7.936,8.168
7.94,8.164
7.944,8.192
7.948,8.18
7.952,8.232
7.956,8.188
7.96,8.168
7.964,8.168
7.968,8.192
7.972,8.272
7.976,8.256
7.98,8.164
7.984,8.224
7.988,8.26
7.992,8.252
7.996,8.176
8,8.132
8.004,8.232
8.008,8.188
8.012,8.18
8.016,8.232
8.02,8.28
8.024,8.248
8.028,8.168
8.032,8.148
8.036,8.2
8.04,8.176
8.044,8.144
8.048,8.26
8.052,8.268
8.056,8.276
8.06,8.308
8.064,8.272
8.068,8.196
8.072,8.132
8.076,8.164
8.08,8.228
8.084,8.24
8.088,8.268
8.092,8.22
8.096,8.192
8.1,8.184
8.104,8.216
8.108,8.244
8.112,8.188
8.116,8.176
8.12,8.196
8.124,8.232
8.128,8.236
8.132,8.244
8.136,8.272
8.14,8.212
8.144,8.264
8.148,8.296
8.152,8.224
8.156,8.264
8.16,8.36
8.164,8.588
8.168,8.548
8.172,8.248
8.176,7.924
8.18,8.036
8.184,8.268
8.188,8.2
8.192,8.248
8.196,8.324
8.2,8.252
8.204,8.068
8.208,8.016
8.212,8.1
8.216,8.252
8.22,8.264
8.224,8.24
8.228,8.156
8.232,8.192
8.236,8.244
8.24,8.28
8.244,8.172
8.248,8.14
8.252,8.268
8.256,8.456
8.26,8.408
8.264,8.212
8.268,8.2
8.272,8.328
8.276,8.196
8.28,8.212
8.284,8.236
8.288,8.428
8.292,8.484
8.296,8.56
8.3,8.612
8.304,8.728
8.308,8.624
8.312,8.46
8.316,8.28
8.32,8.404
8.324,8.58
8.328,8.548
8.332,8.44
8.336,8.424
8.34,8.408
8.344,8.368
8.348,8.2
8.352,8.124
8.356,8.092
8.36,8.172
8.364,8.184
8.368,8.208
8.372,8.316
8.376,8.36
8.38,8.288
8.384,8.232
8.388,8.224
8.392,8.088
8.396,7.936
8.4,7.96
8.404,8.344
8.408,8.512
8.412,8.324
8.416,8.172
8.42,8.364
8.424,8.448
8.428,8.58
8.432,8.788
8.436,8.912
8.44,8.82
8.444,8.62
8.448,8.596
8.452,8.484
8.456,7.912
8.46,7.356
8.464,6.808
8.468,6.54
8.472,6.604
8.476,6.832
8.48,7.176
8.484,7.564
8.488,7.92
8.492,8.112
8.496,8.012
8.5,8.132
8.504,8.272
8.508,8.116
8.512,8.088
8.516,8.112
8.52,8.176
8.524,8.128
8.528,8.124
8.532,8.132
8.536,8.14
8.54,8.28
8.544,8.224
8.548,8.092
8.552,8.128
8.556,8.16
8.56,8.132
8.564,8.176
8.568,8.112
8.572,8.192
8.576,8.324
8.58,8.424
8.584,8.32
8.588,8.176
8.592,8.132
8.596,8.104
8.6,8.244
8.604,8.364
8.608,8.232
8.612,8.22
8.616,8.304
8.62,8.24
8.624,8.176
8.628,8.192
8.632,8.276
8.636,8.26
8.64,8.224
8.644,8.268
8.648,8.26
8.652,8.496
8.656,8.548
8.66,8.596
8.664,8.468
8.668,8.408
8.672,8.38
8.676,8.412
8.68,8.388
8.684,8.54
8.688,8.692
8.692,8.64
8.696,8.648
8.7,8.792
8.704,8.624
8.708,8.38
8.712,8.44
8.716,8.472
8.72,8.628
8.724,8.66
8.728,8.632
8.732,8.72
8.736,8.732
8.74,8.724
8.744,8.668
8.748,8.664
8.752,8.764
8.756,9.028
8.76,9.056
8.764,8.656
8.768,8.276
8.772,8.228
8.776,8.252
8.78,8.132
8.784,8.316
8.788,8.34
8.792,8.124
8.796,8.04
8.8,8.076
8.804,8.224
8.808,8.344
8.812,8.288
8.816,8.1
8.82,8.124
8.824,8.144
8.828,8.208
8.832,8.284
8.836,8.28
8.84,8.18
8.844,8.344
8.848,8.16
8.852,7.848
8.856,7.948
8.86,8.168
8.864,8.064
8.868,7.916
8.872,7.908
8.876,8.012
8.88,8.076
8.884,8.008
8.888,8.028
8.892,8.204
8.896,8.172
8.9,8.056
8.904,8.152
8.908,8.064
8.912,7.996
8.916,8.084
8.92,8.164
8.924,8.276
8.928,8.144
8.932,8.248
8.936,8.372
8.94,8.144
8.944,7.892
8.948,8.044
8.952,8.144
8.956,8.06
8.96,8.096
8.964,8.164
8.968,8.316
8.972,8.212
8.976,7.988
8.98,7.94
8.984,8.116
8.988,8.028
8.992,7.856
8.996,8.188
9,8.396
9.004,8.236
9.008,8
9.012,7.888
9.016,7.924
9.02,8.244
9.024,8.252
9.028,7.956
9.032,8.064
9.036,8.252
9.04,8.264
9.044,8.156
9.048,7.912
9.052,8.116
9.056,8.084
9.06,8.024
9.064,7.912
9.068,8.008
9.072,8.192
9.076,8.236
9.08,8.256
9.084,8.192
9.088,7.876
9.092,7.964
9.096,7.964
9.1,8.052
9.104,8.104
9.108,8.192
9.112,8.212
9.116,8.088
9.12,8.112
9.124,8.02
9.128,8.044
9.132,8.092
9.136,8.088
9.14,8.208
9.144,8.236
9.148,8.26
9.152,8.1
9.156,8.304
9.16,8.464
9.164,8.368
9.168,8.24
9.172,8.084
9.176,8.3
9.18,8.38
9.184,8.208
9.188,8.188
9.192,8.72
9.196,8.996
9.2,8.384
9.204,7.944
9.208,7.956
9.212,7.92
9.216,7.972
9.22,7.996
9.224,8.012
9.228,8.008
9.232,8.088
9.236,8.144
9.24,8.148
9.244,8.196
9.248,8.296
9.252,8.176
9.256,7.896
9.26,7.832
9.264,7.748
9.268,8.028
9.272,8.136
9.276,7.992
9.28,7.988
9.284,8.108
9.288,8.28
9.292,8.384
9.296,8.284
9.3,8.452
9.304,8.672
9.308,8.556
9.312,8.396
9.316,8.728
9.32,8.776
9.324,7.748
9.328,6.908
9.332,6.244
9.336,6.072
9.34,6.212
9.344,6.964
9.348,7.696
9.352,7.448
9.356,7.556
9.36,7.768
9.364,7.616
9.368,7.56
9.372,7.656
9.376,7.712
9.38,7.892
9.384,8.12
9.388,8.172
9.392,8.12
9.396,7.876
9.4,7.768
9.404,7.848
9.408,8.088
9.412,8.316
9.416,8.452
9.42,8.44
9.424,8.096
9.428,7.904
9.432,7.908
9.436,7.872
9.44,7.896
9.444,7.82
9.448,7.912
9.452,8.24
9.456,8.072
9.46,7.892
9.464,7.96
9.468,8.124
9.472,8.16
9.476,8.06
9.48,8.076
9.484,8.156
9.488,8.18
9.492,8.06
9.496,8.116
9.5,8.004
9.504,8
9.508,8.192
9.512,8.684
9.516,8.696
9.52,8.36
9.524,8.112
9.528,7.972
9.532,7.868
9.536,7.908
9.54,8.184
9.544,8.272
9.548,8.252
9.552,8.288
9.556,8.412
9.56,8.556
9.564,8.528
9.568,8.748
9.572,8.66
9.576,8.564
9.58,8.516
9.584,8.416
9.588,8.472
9.592,8.424
9.596,8.476
9.6,8.72
9.604,8.78
9.608,8.552
9.612,8.392
9.616,8.472
9.62,8.564
9.624,8.328
9.628,8.112
9.632,8.212
9.636,8.38
9.64,8.732
9.644,8.472
9.648,7.94
9.652,7.892
9.656,7.884
9.66,8.012
9.664,8.128
9.668,8.084
9.672,7.988
9.676,7.992
9.68,8.416
9.684,8.352
9.688,7.888
9.692,7.632
9.696,7.828
9.7,7.94
9.704,8.048
9.708,8.096
9.712,8.036
9.716,7.98
9.72,8.028
9.724,8.016
9.728,7.852
9.732,7.78
9.736,8.016
9.74,8.1
9.744,7.9
9.748,7.904
9.752,8.016
9.756,7.988
9.76,7.96
9.764,8.024
9.768,8.064
9.772,8.024
9.776,7.988
9.78,8.024
9.784,7.988
9.788,7.884
9.792,7.988
9.796,8.12
9.8,8.068
9.804,7.984
9.808,7.988
9.812,8.04
9.816,7.972
9.82,8.052
9.824,8.072
9.828,7.988
9.832,7.984
9.836,8.072
9.84,8.068
9.844,8.1
9.848,8.064
9.852,8.052
9.856,8.08
9.86,8.008
9.864,8.008
9.868,8.008
9.872,8.06
9.876,8.096
9.88,8.072
9.884,8.036
9.888,8.004
9.892,8.024
9.896,8.08
9.9,8.108
9.904,8.092
9.908,8.064
9.912,8.02
9.916,8.004
9.92,8.068
9.924,8.132
9.928,8.104
9.932,8.096
9.936,8
9.94,8.044
9.944,8.096
9.948,8.048
9.952,8.176
9.956,8.208
9.96,8.168
9.964,8.064
9.968,8.108
9.972,8.084
9.976,8.092
9.98,8.12
9.984,8.136
9.988,8.144
9.992,8.12
9.996,8.152
10,8.152
10.004,8.228
10.008,8.24
10.012,8.244
10.016,8.26
10.02,8.232
10.024,8.244
10.028,8.3
10.032,8.348
10.036,8.368
10.04,8.396
10.044,8.404
10.048,8.392
10.052,8.364
10.056,8.292
10.06,8.256
10.064,8.344
10.068,8.392
10.072,8.332
10.076,8.276
10.08,8.196
10.084,8.14
10.088,8.1
10.092,8.092
10.096,8.052
10.1,8.04
10.104,8.084
10.108,8.124
10.112,8.088
10.116,8.06
10.12,8.076
10.124,8.06
10.128,8.068
10.132,8.072
10.136,8.068
10.14,8.088
10.144,8.064
10.148,8.128
10.152,8.308
10.156,8.44
10.16,8.556
10.164,8.736
10.168,8.816
10.172,8.736
10.176,8.8
10.18,8.816
10.184,8.46
10.188,7.88
10.192,7.268
10.196,6.728
10.2,6.588
10.204,6.668
10.208,6.928
10.212,7.216
10.216,7.444
10.22,7.636
10.224,7.824
10.228,7.944
10.232,7.948
10.236,8.004
10.24,8.02
10.244,8.008
10.248,8.08
10.252,8.136
10.256,8.148
10.26,8.096
10.264,8.076
10.268,8.128
10.272,8.164
10.276,8.14
10.28,8.12
10.284,8.132
10.288,8.176
10.292,8.18
10.296,8.112
10.3,8.108
10.304,8.144
10.308,8.148
10.312,8.152
10.316,8.156
10.32,8.216
10.324,8.208
10.328,8.16
10.332,8.164
10.336,8.184
10.34,8.212
10.344,8.188
10.348,8.172
10.352,8.232
10.356,8.232
10.36,8.228
10.364,8.208
10.368,8.216
10.372,8.292
10.376,8.308
10.38,8.288
10.384,8.324
10.388,8.36
10.392,8.376
10.396,8.36
10.4,8.388
10.404,8.452
10.408,8.456
10.412,8.456
10.416,8.468
10.42,8.54
10.424,8.58
10.428,8.592
10.432,8.588
10.436,8.632
10.44,8.688
10.444,8.692
10.448,8.688
10.452,8.684
10.456,8.74
10.46,8.72
10.464,8.696
10.468,8.692
10.472,8.68
10.476,8.628
10.48,8.608
10.484,8.596
10.488,8.6
10.492,8.568
10.496,8.52
10.5,8.444
10.504,8.428
10.508,8.392
10.512,8.372
10.516,8.324
10.52,8.316
10.524,8.316
10.528,8.232
10.532,8.22
10.536,8.252
10.54,8.244
10.544,8.172
10.548,8.18
10.552,8.18
10.556,8.176
10.56,8.18
10.564,8.128
10.568,8.148
10.572,8.168
10.576,8.14
10.58,8.108
10.584,8.116
10.588,8.16
10.592,8.144
10.596,8.152
10.6,8.14
10.604,8.168
10.608,8.172
10.612,8.148
10.616,8.14
10.62,8.164
10.624,8.176
10.628,8.14
10.632,8.16
10.636,8.176
10.64,8.184
10.644,8.172
10.648,8.16
10.652,8.192
10.656,8.208
10.66,8.208
10.664,8.164
10.668,8.192
10.672,8.196
10.676,8.176
10.68,8.152
10.684,8.168
10.688,8.18
10.692,8.184
10.696,8.164
10.7,8.172
10.704,8.192
10.708,8.184
10.712,8.164
10.716,8.148
10.72,8.168
10.724,8.176
10.728,8.144
10.732,8.168
10.736,8.152
10.74,8.168
10.744,8.164
10.748,8.14
10.752,8.14
10.756,8.184
10.76,8.148
10.764,8.144
10.768,8.148
10.772,8.152
10.776,8.16
10.78,8.128
10.784,8.136
10.788,8.144
10.792,8.156
10.796,8.148
10.8,8.14
10.804,8.16
10.808,8.152
10.812,8.136
10.816,8.136
10.82,8.136
10.824,8.148
10.828,8.132
10.832,8.128
10.836,8.156
10.84,8.156
10.844,8.144
10.848,8.1
10.852,8.128
10.856,8.14
10.86,8.16
10.864,8.196
10.868,8.26
10.872,8.292
10.876,8.288
10.88,8.248
10.884,8.26
10.888,8.248
10.892,8.32
10.896,8.356
10.9,8.392
10.904,8.452
10.908,8.424
10.912,8.384
10.916,8.392
10.92,8.38
10.924,8.344
10.928,8.3
10.932,8.34
10.936,8.376
10.94,8.308
10.944,8.236
10.948,8.164
10.952,8.152
10.956,8.128
10.96,8.104
10.964,8.104
10.968,8.072
10.972,8.08
10.976,8.06
10.98,8.068
10.984,8.024
10.988,8.06
10.992,8.072
10.996,8.032
11,8.04
11.004,8.084
11.008,8.068
11.012,8.068
11.016,8.224
11.02,8.46
11.024,8.576
11.028,8.72
11.032,8.916
11.036,8.888
11.04,8.816
11.044,8.852
11.048,8.6
11.052,8.048
11.056,7.428
11.06,6.824
11.064,6.552
11.068,6.564
11.072,6.852
11.076,7.18
11.08,7.372
11.084,7.564
11.088,7.768
11.092,7.916
11.096,7.948
11.1,7.996
11.104,8.04
11.108,8.052
11.112,8.056
11.116,8.036
11.12,8.104
11.124,8.096
11.128,8.104
11.132,8.076
11.136,8.12
11.14,8.112
11.144,8.1
11.148,8.1
11.152,8.132
11.156,8.116
11.16,8.112
11.164,8.108
11.168,8.104
11.172,8.128
11.176,8.144
11.18,8.116
11.184,8.144
11.188,8.172
11.192,8.188
11.196,8.152
11.2,8.176
11.204,8.172
11.208,8.204
11.212,8.2
11.216,8.192
11.22,8.204
11.224,8.22
11.228,8.196
11.232,8.192
11.236,8.24
11.24,8.272
11.244,8.24
11.248,8.276
11.252,8.304
11.256,8.328
11.26,8.336
11.264,8.324
11.268,8.356
11.272,8.408
11.276,8.428
11.28,8.46
11.284,8.492
11.288,8.52
11.292,8.544
11.296,8.56
11.3,8.564
11.304,8.616
11.308,8.632
11.312,8.66
11.316,8.628
11.32,8.668
11.324,8.692
11.328,8.652
11.332,8.6
11.336,8.652
11.34,8.64
11.344,8.568
11.348,8.528
11.352,8.512
11.356,8.472
11.36,8.444
11.364,8.42
11.368,8.372
11.372,8.372
11.376,8.344
11.38,8.292
11.384,8.236
11.388,8.228
11.392,8.236
11.396,8.2
11.4,8.16
11.404,8.152
11.408,8.164
11.412,8.112
11.416,8.096
11.42,8.14
11.424,8.136
11.428,8.112
11.432,8.08
11.436,8.088
11.44,8.136
11.444,8.1
11.448,8.064
11.452,8.08
11.456,8.124
11.46,8.084
11.464,8.064
11.468,8.068
11.472,8.096
11.476,8.1
11.48,8.064
11.484,8.072
11.488,8.116
11.492,8.096
11.496,8.1
11.5,8.084
11.504,8.096
11.508,8.108
11.512,8.072
11.516,8.08
11.52,8.132
11.524,8.148
11.528,8.104
11.532,8.072
11.536,8.116
11.54,8.132
11.544,8.1
11.548,8.068
11.552,8.104
11.556,8.136
11.56,8.108
11.564,8.092
11.568,8.08
11.572,8.092
11.576,8.096
11.58,8.056
11.584,8.068
11.588,8.116
11.592,8.116
11.596,8.068
11.6,8.044
11.604,8.096
11.608,8.08
11.612,8.088
11.616,8.072
11.62,8.104
11.624,8.124
11.628,8.104
11.632,8.08
11.636,8.04
11.64,8.08
11.644,8.096
11.648,8.024
11.652,8.056
11.656,8.08
11.66,8.056
11.664,8.048
11.668,8.044
11.672,8.032
11.676,8.056
11.68,8.032
11.684,8.048
11.688,8.072
11.692,8.08
11.696,8.072
11.7,8.044
11.704,8.084
11.708,8.048
11.712,8.06
11.716,8.016
11.72,8.052
11.724,8.052
11.728,8.024
11.732,8.02
11.736,8.04
11.74,8.076
11.744,8.068
11.748,8.096
11.752,8.148
11.756,8.176
11.76,8.176
11.764,8.172
11.768,8.14
11.772,8.172
11.776,8.248
11.78,8.272
11.784,8.368
11.788,8.332
11.792,8.292
11.796,8.308
11.8,8.252
11.804,8.228
11.808,8.252
11.812,8.236
11.816,8.208
11.82,8.176
11.824,8.128
11.828,8.048
11.832,8.024
11.836,8.02
11.84,8.048
11.844,7.996
11.848,7.948
11.852,7.94
11.856,7.964
11.86,7.932
11.864,7.892
11.868,7.9
11.872,7.94
11.876,7.924
11.88,7.924
11.884,7.916
11.888,7.944
11.892,7.988
11.896,8.036
11.9,8.192
11.904,8.392
11.908,8.472
11.912,8.664
11.916,8.692
11.92,8.568
11.924,8.584
11.928,8.54
11.932,8.128
11.936,7.576
11.94,6.944
11.944,6.448
11.948,6.328
11.952,6.508
11.956,6.844
11.96,7.056
11.964,7.272
11.968,7.516
11.972,7.696
11.976,7.768
11.98,7.84
11.984,7.872
11.988,7.884
11.992,7.892
11.996,7.96
12,7.948
12.004,7.984
12.008,7.964
12.012,7.936
12.016,7.948
12.02,8
12.024,8.004
12.028,7.928
12.032,7.964
12.036,7.988
12.04,8.012
12.044,7.98
12.048,8.016
12.052,8.016
12.056,8.024
12.06,7.992
12.064,7.944
12.068,7.98
12.072,8.04
12.076,8.06
12.08,8.064
12.084,8.008
12.088,8.024
12.092,8.044
12.096,8.06
12.1,8.04
12.104,8.064
12.108,8.084
12.112,8.112
12.116,8.072
12.12,8.116
12.124,8.108
12.128,8.104
12.132,8.132
12.136,8.18
12.14,8.224
12.144,8.208
12.148,8.248
12.152,8.304
12.156,8.276
12.16,8.3
12.164,8.328
12.168,8.38
12.172,8.436
12.176,8.428
12.18,8.452
12.184,8.516
12.188,8.52
12.192,8.552
12.196,8.552
12.2,8.552
12.204,8.616
12.208,8.616
12.212,8.56
12.216,8.576
12.22,8.612
12.224,8.564
12.228,8.524
12.232,8.48
12.236,8.452
12.24,8.424
12.244,8.352
12.248,8.332
12.252,8.296
12.256,8.28
12.26,8.24
12.264,8.184
12.268,8.176
12.272,8.16
12.276,8.132
12.28,8.096
12.284,8.072
12.288,8.06
12.292,8.072
12.296,8.044
12.3,8.028
12.304,8.052
12.308,8.004
12.312,8.004
12.316,8.052
12.32,8.08
12.324,8.064
12.328,7.98
12.332,7.992
12.336,8.012
12.34,8.028
12.344,8.012
12.348,8.036
12.352,8.06
12.356,8.02
12.36,8.008
12.364,7.984
12.368,8.008
12.372,8.028
12.376,8.044
12.38,7.992
12.384,8.016
12.388,8.056
12.392,8.044
12.396,8.044
12.4,8.072
12.404,8.06
12.408,8.032
12.412,8.044
12.416,8.084
12.42,8.084
12.424,8.1
12.428,8.08
12.432,8.08
12.436,8.064
12.44,8.068
12.444,8.048
12.448,7.996
12.452,8.032
12.456,8.116
12.46,8.12
12.464,8.088
12.468,8.076
12.472,8.092
12.476,8.096
12.48,8.064
12.484,8.076
12.488,8.104
12.492,8.092
12.496,8.068
12.5,8.048
12.504,8.096
12.508,8.104
12.512,8.072
12.516,8.048
12.52,8.104
12.524,8.108
12.528,8.088
12.532,8.068
12.536,8.088
12.54,8.076
12.544,8.064
12.548,8.036
12.552,8.052
12.556,8.108
12.56,8.112
12.564,8.092
12.568,8.116
12.572,8.12
12.576,8.108
12.58,8.028
12.584,8.004
12.588,8.096
12.592,8.12
12.596,8.064
12.6,8.076
12.604,8.056
12.608,8.1
12.612,8.06
12.616,8.048
12.62,8.084
12.624,8.096
12.628,8.056
12.632,8.056
12.636,8.104
12.64,8.112
12.644,8.1
12.648,8.072
12.652,8.108
12.656,8.14
12.66,8.192
12.664,8.172
12.668,8.2
12.672,8.236
12.676,8.2
12.68,8.152
12.684,8.196
12.688,8.344
12.692,8.4
12.696,8.38
12.7,8.3
12.704,8.32
12.708,8.348
12.712,8.304
12.716,8.264
12.72,8.324
12.724,8.352
12.728,8.3
12.732,8.196
12.736,8.168
12.74,8.14
12.744,8.076
12.748,8.052
12.752,8.044
12.756,8.072
12.76,8.064
12.764,8.024
12.768,8.032
12.772,8.032
12.776,8.02
12.78,7.992
12.784,7.988
12.788,8.016
12.792,8.048
12.796,8.032
12.8,8.036
12.804,8.072
12.808,8.168
12.812,8.324
12.816,8.464
12.82,8.688
12.824,8.9
12.828,8.944
12.832,8.8
12.836,8.916
12.84,8.808
12.844,8.264
12.848,7.596
12.852,6.98
12.856,6.66
12.86,6.568
12.864,6.756
12.868,7.04
12.872,7.308
12.876,7.5
12.88,7.648
12.884,7.792
12.888,7.932
12.892,7.96
12.896,7.964
12.9,8.008
12.904,8.048
12.908,8.052
12.912,8.02
12.916,8.008
12.92,8.048
12.924,8.088
12.928,8.076
12.932,8.048
12.936,8.1
12.94,8.104
12.944,8.084
12.948,8.056
12.952,8.064
12.956,8.076
12.96,8.084
12.964,8.08
12.968,8.076
12.972,8.104
12.976,8.108
12.98,8.072
12.984,8.104
12.988,8.132
12.992,8.136
12.996,8.116
13,8.112
13.004,8.14
13.008,8.152
13.012,8.144
13.016,8.112
13.02,8.156
13.024,8.192
13.028,8.192
13.032,8.204
13.036,8.208
13.04,8.272
13.044,8.244
13.048,8.272
13.052,8.28
13.056,8.304
13.06,8.344
13.064,8.348
13.068,8.384
13.072,8.456
13.076,8.456
13.08,8.472
13.084,8.484
13.088,8.508
13.092,8.548
13.096,8.532
13.1,8.576
13.104,8.64
13.108,8.66
13.112,8.632
13.116,8.656
13.12,8.644
13.124,8.644
13.128,8.636
13.132,8.568
13.136,8.6
13.14,8.616
13.144,8.552
13.148,8.5
13.152,8.476
13.156,8.44
13.16,8.392
13.164,8.332
13.168,8.32
13.172,8.336
13.176,8.272
13.18,8.232
13.184,8.224
13.188,8.228
13.192,8.212
13.196,8.168
13.2,8.136
13.204,8.156
13.208,8.18
13.212,8.104
13.216,8.116
13.22,8.112
13.224,8.128
13.228,8.1
13.232,8.072
13.236,8.096
13.24,8.112
13.244,8.112
13.248,8.068
13.252,8.092
13.256,8.088
13.26,8.064
13.264,8.06
13.268,8.036
13.272,8.088
13.276,8.108
13.28,8.088
13.284,8.048
13.288,8.088
13.292,8.096
13.296,8.08
13.3,8.08
13.304,8.06
13.308,8.108
13.312,8.092
13.316,8.1
13.32,8.096
13.324,8.132
13.328,8.108
13.332,8.108
13.336,8.136
13.34,8.14
13.344,8.148
13.348,8.088
13.352,8.124
13.356,8.156
13.36,8.108
13.364,8.084
13.368,8.104
13.372,8.132
13.376,8.112
13.38,8.104
13.384,8.096
13.388,8.128
13.392,8.124
13.396,8.112
13.4,8.096
13.404,8.116
13.408,8.128
13.412,8.108
13.416,8.128
13.42,8.14
13.424,8.144
13.428,8.104
13.432,8.084
13.436,8.108
13.44,8.112
13.444,8.084
13.448,8.104
13.452,8.108
13.456,8.104
13.46,8.1
13.464,8.088
13.468,8.104
13.472,8.124
13.476,8.108
13.48,8.108
13.484,8.088
13.488,8.124
13.492,8.116
13.496,8.104
13.5,8.068
13.504,8.116
13.508,8.112
13.512,8.104
13.516,8.104
13.52,8.12
13.524,8.148
13.528,8.1
13.532,8.068
13.536,8.116
13.54,8.12
13.544,8.124
13.548,8.104
13.552,8.104
13.556,8.116
13.56,8.116
13.564,8.104
13.568,8.096
13.572,8.108
13.576,8.136
13.58,8.104
13.584,8.096
13.588,8.124
13.592,8.144
13.596,8.128
13.6,8.12
13.604,8.168
13.608,8.2
13.612,8.212
13.616,8.22
13.62,8.256
13.624,8.26
13.628,8.232
13.632,8.256
13.636,8.292
13.64,8.368
13.644,8.392
13.648,8.368
13.652,8.36
13.656,8.4
13.66,8.352
13.664,8.308
13.668,8.312
13.672,8.332
13.676,8.296
13.68,8.248
13.684,8.188
13.688,8.164
13.692,8.128
13.696,8.076
13.7,8.044
13.704,8.068
13.708,8.072
13.712,8
13.716,7.984
13.72,8.032
13.724,8.032
13.728,8.04
13.732,7.988
13.736,8.02
13.74,8.044
13.744,8.028
13.748,8.016
13.752,8.048
13.756,8.104
13.76,8.252
13.764,8.436
13.768,8.6
13.772,8.796
13.776,8.964
13.78,8.86
13.784,8.772
13.788,8.748
13.792,8.488
13.796,7.816
13.8,7.188
13.804,6.7
13.808,6.536
13.812,6.564
13.816,6.872
13.82,7.184
13.824,7.384
13.828,7.568
13.832,7.78
13.836,7.904
13.84,7.952
13.844,7.968
13.848,7.964
13.852,8.012
13.856,8.028
13.86,8.024
13.864,8.004
13.868,8.032
13.872,8.076
13.876,8.064
13.88,8.04
13.884,8.012
13.888,8.064
13.892,8.052
13.896,8.06
13.9,8.044
13.904,8.068
13.908,8.084
13.912,8.052
13.916,8.044
13.92,8.072
13.924,8.08
13.928,8.056
13.932,8.076
13.936,8.116
13.94,8.128
13.944,8.088
13.948,8.088
13.952,8.108
13.956,8.148
13.96,8.132
13.964,8.164
13.968,8.176
13.972,8.168
13.976,8.172
13.98,8.192
13.984,8.18
13.988,8.252
13.992,8.252
13.996,8.26
14,8.268
14.004,8.312
14.008,8.312
14.012,8.312
14.016,8.348
14.02,8.408
14.024,8.436
14.028,8.456
14.032,8.448
14.036,8.516
14.04,8.544
14.044,8.544
14.048,8.556
14.052,8.576
14.056,8.64
14.06,8.624
14.064,8.596
14.068,8.648
14.072,8.64
14.076,8.64
14.08,8.58
14.084,8.532
14.088,8.544
14.092,8.532
14.096,8.488
14.1,8.472
14.104,8.472
14.108,8.404
14.112,8.352
14.116,8.304
14.12,8.292
14.124,8.28
14.128,8.24
14.132,8.188
14.136,8.204
14.14,8.2
14.144,8.192
14.148,8.144
14.152,8.12
14.156,8.14
14.16,8.12
14.164,8.108
14.168,8.116
14.172,8.12
14.176,8.108
14.18,8.08
14.184,8.072
14.188,8.092
14.192,8.092
14.196,8.096
14.2,8.076
14.204,8.096
14.208,8.092
14.212,8.04
14.216,8.04
14.22,8.096
14.224,8.064
14.228,8.084
14.232,8.036
14.236,8.06
14.24,8.072
14.244,8.104
14.248,8.08
14.252,8.064
14.256,8.1
14.26,8.092
14.264,8.088
14.268,8.076
14.272,8.092
14.276,8.1
14.28,8.076
14.284,8.068
14.288,8.104
14.292,8.084
14.296,8.072
14.3,8.064
14.304,8.088
14.308,8.092
14.312,8.096
14.316,8.096
14.32,8.124
14.324,8.104
14.328,8.092
14.332,8.08
14.336,8.08
14.34,8.124
14.344,8.124
14.348,8.072
14.352,8.092
14.356,8.1
14.36,8.104
14.364,8.068
14.368,8.096
14.372,8.116
14.376,8.06
14.38,8.076
14.384,8.068
14.388,8.104
14.392,8.096
14.396,8.08
14.4,8.076
14.404,8.108
14.408,8.116
14.412,8.088
14.416,8.084
14.42,8.084
14.424,8.132
14.428,8.12
14.432,8.048
14.436,8.088
14.44,8.104
14.444,8.084
14.448,8.072
14.452,8.096
14.456,8.084
14.46,8.064
14.464,8.068
14.468,8.068
14.472,8.096
14.476,8.108
14.48,8.084
14.484,8.068
14.488,8.096
14.492,8.08
14.496,8.104
14.5,8.132
14.504,8.132
14.508,8.108
14.512,8.112
14.516,8.096
14.52,8.084
14.524,8.108
14.528,8.1
14.532,8.04
14.536,8.1
14.54,8.128
14.544,8.104
14.548,8.08
14.552,8.06
14.556,8.072
14.56,8.072
14.564,8.048
14.568,8.06
14.572,8.12
14.576,8.084
14.58,8.084
14.584,8.112
14.588,8.156
14.592,8.168
14.596,8.18
14.6,8.208
14.604,8.228
14.608,8.192
14.612,8.152
14.616,8.184
14.62,8.244
14.624,8.324
14.628,8.336
14.632,8.312
14.636,8.324
14.64,8.328
14.644,8.264
14.648,8.248
14.652,8.288
14.656,8.308
14.66,8.248
14.664,8.184
14.668,8.152
14.672,8.132
14.676,8.072
14.68,8.032
14.684,8.092
14.688,8.06
14.692,8.048
14.696,7.98
14.7,7.984
14.704,8.024
14.708,7.984
14.712,7.98
14.716,7.984
14.72,8.048
14.724,8.056
14.728,8.02
14.732,7.984
14.736,8.04
14.74,8.072
14.744,8.176
14.748,8.336
14.752,8.488
14.756,8.672
14.76,8.816
14.764,8.72
14.768,8.616
14.772,8.752
14.776,8.508
14.78,7.956
14.784,7.356
14.788,6.864
14.792,6.532
14.796,6.456
14.8,6.708
14.804,7.02
14.808,7.268
14.812,7.44
14.816,7.684
14.82,7.82
14.824,7.896
14.828,7.936
14.832,7.916
14.836,8
14.84,8.04
14.844,7.996
14.848,7.976
14.852,8
14.856,8.052
14.86,8.08
14.864,8.028
14.868,8.036
14.872,8.064
14.876,8.06
14.88,8.028
14.884,8.044
14.888,8.076
14.892,8.08
14.896,8.048
14.9,8.064
14.904,8.068
14.908,8.104
14.912,8.036
14.916,8.048
14.92,8.124
14.924,8.1
14.928,8.088
14.932,8.056
14.936,8.128
14.94,8.148
14.944,8.124
14.948,8.076
14.952,8.112
14.956,8.184
14.96,8.156
14.964,8.176
14.968,8.188
14.972,8.224
14.976,8.2
14.98,8.192
14.984,8.244
14.988,8.316
14.992,8.284
14.996,8.3
15,8.308
15.004,8.38
15.008,8.384
15.012,8.38
15.016,8.436
15.02,8.476
15.024,8.488
15.028,8.528
15.032,8.524
15.036,8.6
15.04,8.604
15.044,8.6
15.048,8.568
15.052,8.616
15.056,8.66
15.06,8.608
15.064,8.588
15.068,8.596
15.072,8.596
15.076,8.54
15.08,8.476
15.084,8.48
15.088,8.496
15.092,8.412
15.096,8.364
15.1,8.348
15.104,8.352
15.108,8.3
15.112,8.22
15.116,8.184
15.12,8.204
15.124,8.208
15.128,8.192
15.132,8.144
15.136,8.152
15.14,8.16
15.144,8.1
15.148,8.064
15.152,8.1
15.156,8.12
15.16,8.116
15.164,8.032
15.168,8.056
15.172,8.068
15.176,8.052
15.18,8.024
15.184,8.044
15.188,8.096
15.192,8.084
15.196,8.044
15.2,8.068
15.204,8.092
15.208,8.096
15.212,8.08
15.216,8.056
15.22,8.084
15.224,8.08
15.228,8.072
15.232,8.04
15.236,8.088
15.24,8.096
15.244,8.084
15.248,8.048
15.252,8.076
15.256,8.092
15.26,8.124
15.264,8.084
15.268,8.096
15.272,8.124
15.276,8.072
15.28,8.08
15.284,8.092
15.288,8.12
15.292,8.076
15.296,8.084
15.3,8.092
15.304,8.108
15.308,8.104
15.312,8.076
15.316,8.076
15.32,8.12
15.324,8.1
15.328,8.096
15.332,8.048
15.336,8.068
15.34,8.104
15.344,8.072
15.348,8.06
15.352,8.084
15.356,8.132
15.36,8.116
15.364,8.044
15.368,8.052
15.372,8.124
15.376,8.08
15.38,8.076
15.384,8.076
15.388,8.112
15.392,8.096
15.396,8.008
15.4,8.076
15.404,8.092
15.408,8.088
15.412,8.08
15.416,8.064
15.42,8.064
15.424,8.092
15.428,8.032
15.432,8.044
15.436,8.084
15.44,8.1
15.444,8.096
15.448,8.06
15.452,8.072
15.456,8.104
15.46,8.076
15.464,8.036
15.468,8.068
15.472,8.112
15.476,8.1
15.48,8.06
15.484,8.084
15.488,8.132
15.492,8.104
15.496,8.056
15.5,8.084
15.504,8.092
15.508,8.096
15.512,8.044
15.516,8.06
15.52,8.1
15.524,8.084
15.528,8.072
15.532,8.028
15.536,8.08
15.54,8.12
15.544,8.088
15.548,8.052
15.552,8.088
15.556,8.108
15.56,8.068
15.564,8.052
15.568,8.06
15.572,8.084
15.576,8.084
15.58,8.06
15.584,8.092
15.588,8.124
15.592,8.136
15.596,8.128
15.6,8.184
15.604,8.208
15.608,8.216
15.612,8.184
15.616,8.192
15.62,8.216
15.624,8.272
15.628,8.296
15.632,8.328
15.636,8.388
15.64,8.316
15.644,8.284
15.648,8.244
15.652,8.26
15.656,8.284
15.66,8.236
15.664,8.24
15.668,8.228
15.672,8.204
15.676,8.116
15.68,8.056
15.684,8.056
15.688,8.056
15.692,8.08
15.696,8
15.7,8.008
15.704,8.008
15.708,8.024
15.712,7.972
15.716,7.996
15.72,8.032
15.724,8.012
15.728,8.016
15.732,7.968
15.736,8.004
15.74,8.04
15.744,8.02
15.748,8.048
15.752,8.248
15.756,8.48
15.76,8.592
15.764,8.732
15.768,8.876
15.772,8.816
15.776,8.74
15.78,8.684
15.784,8.388
15.788,7.784
15.792,7.152
15.796,6.664
15.8,6.512
15.804,6.604
15.808,6.888
15.812,7.14
15.816,7.328
15.82,7.58
15.824,7.784
15.828,7.844
15.832,7.9
15.836,7.956
15.84,7.98
15.844,7.996
15.848,7.988
15.852,8.008
15.856,8.052
15.86,8.036
15.864,8.028
15.868,8.036
15.872,8.088
15.876,8.048
15.88,8.032
15.884,8.04
15.888,8.032
15.892,8.064
15.896,8.028
15.9,8.08
15.904,8.104
15.908,8.072
15.912,8.052
15.916,8.036
15.92,8.096
15.924,8.088
15.928,8.092
15.932,8.08
15.936,8.116
15.94,8.144
15.944,8.104
15.948,8.096
15.952,8.108
15.956,8.144
15.96,8.124
15.964,8.12
15.968,8.156
15.972,8.212
15.976,8.204
15.98,8.18
15.984,8.208
15.988,8.224
15.992,8.232
15.996,8.252
16,8.296
16.004,8.324
16.008,8.372
16.012,8.336
16.016,8.36
16.02,8.412
16.024,8.444
16.028,8.468
16.032,8.496
16.036,8.548
16.04,8.544
16.044,8.524
16.048,8.54
16.052,8.564
16.056,8.616
16.06,8.616
16.064,8.576
16.068,8.576
16.072,8.596
16.076,8.536
16.08,8.5
16.084,8.504
16.088,8.484
16.092,8.444
16.096,8.384
16.1,8.376
16.104,8.356
16.108,8.304
16.112,8.272
16.116,8.204
16.12,8.216
16.124,8.192
16.128,8.168
16.132,8.14
16.136,8.176
16.14,8.184
16.144,8.116
16.148,8.096
16.152,8.104
16.156,8.112
16.16,8.072
16.164,8.056
16.168,8.064
16.172,8.1
16.176,8.068
16.18,8.028
16.184,8.056
16.188,8.06
16.192,8.06
16.196,8.024
16.2,8.028
16.204,8.084
16.208,8.076
16.212,8.04
16.216,8.004
16.22,8.048
16.224,8.064
16.228,8.032
16.232,8.052
16.236,8.068
16.24,8.1
16.244,8.048
16.248,8.032
16.252,8.04
16.256,8.084
16.26,8.068
16.264,8.032
16.268,8.08
16.272,8.112
16.276,8.08
16.28,8.044
16.284,8.056
16.288,8.08
16.292,8.08
16.296,8.032
16.3,8.052
16.304,8.112
16.308,8.1
16.312,8.076
16.316,8.06
16.32,8.104
16.324,8.084
16.328,8.056
16.332,8.068
16.336,8.092
16.34,8.124
16.344,8.08
16.348,8.056
16.352,8.084
16.356,8.076
16.36,8.06
16.364,8.068
16.368,8.108
16.372,8.108
16.376,8.092
16.38,8.068
16.384,8.048
16.388,8.092
16.392,8.076
16.396,8.048
16.4,8.064
16.404,8.096
16.408,8.104
16.412,8.064
16.416,8.048
16.42,8.084
16.424,8.068
16.428,8.044
16.432,8.056
16.436,8.068
16.44,8.104
16.444,8.088
16.448,8.06
16.452,8.048
16.456,8.12
16.46,8.08
16.464,8.06
16.468,8.104
16.472,8.14
16.476,8.104
16.48,8.084
16.484,8.096
16.488,8.116
16.492,8.088
16.496,8.068
16.5,8.068
16.504,8.104
16.508,8.104
16.512,8.072
16.516,8.088
16.52,8.136
16.524,8.136
16.528,8.1
16.532,8.064
16.536,8.092
16.54,8.144
16.544,8.108
16.548,8.088
16.552,8.104
16.556,8.116
16.56,8.08
16.564,8.06
16.568,8.092
16.572,8.12
16.576,8.104
16.58,8.076
16.584,8.104
16.588,8.136
16.592,8.084
16.596,8.096
16.6,8.084
16.604,8.128
16.608,8.132
16.612,8.116
16.616,8.124
16.62,8.136
16.624,8.192
16.628,8.2
16.632,8.204
16.636,8.244
16.64,8.284
16.644,8.24
16.648,8.232
16.652,8.264
16.656,8.368
16.66,8.372
16.664,8.4
16.668,8.36
16.672,8.352
16.676,8.348
16.68,8.284
16.684,8.304
16.688,8.32
16.692,8.312
16.696,8.288
16.7,8.228
16.704,8.212
16.708,8.192
16.712,8.112
16.716,8.1
16.72,8.116
16.724,8.112
16.728,8.092
16.732,8.024
16.736,8.068
16.74,8.092
16.744,8.052
16.748,8.04
16.752,8.064
16.756,8.116
16.76,8.096
16.764,8.044
16.768,8.088
16.772,8.104
16.776,8.164
16.78,8.308
16.784,8.492
16.788,8.688
16.792,8.82
16.796,8.884
16.8,8.76
16.804,8.68
16.808,8.652
16.812,8.336
16.816,7.712
16.82,7.16
16.824,6.712
16.828,6.512
16.832,6.548
16.836,6.896
16.84,7.188
16.844,7.376
16.848,7.584
16.852,7.828
16.856,7.968
16.86,8
16.864,7.996
16.868,8.02
16.872,8.084
16.876,8.068
16.88,8.08
16.884,8.132
16.888,8.184
16.892,8.156
16.896,8.12
16.9,8.132
16.904,8.172
16.908,8.176
16.912,8.14
16.916,8.1
16.92,8.152
16.924,8.196
16.928,8.18
16.932,8.136
16.936,8.192
16.94,8.208
16.944,8.16
16.948,8.12
16.952,8.208
16.956,8.252
16.96,8.2
16.964,8.18
16.968,8.176
16.972,8.232
16.976,8.212
16.98,8.172
16.984,8.232
16.988,8.288
16.992,8.292
16.996,8.272
17,8.304
17.004,8.336
17.008,8.332
17.012,8.304
17.016,8.3
17.02,8.372
17.024,8.388
17.028,8.384
17.032,8.428
17.036,8.484
17.04,8.512
17.044,8.5
17.048,8.48
17.052,8.528
17.056,8.604
17.06,8.62
17.064,8.612
17.068,8.664
17.072,8.692
17.076,8.668
17.08,8.668
17.084,8.676
17.088,8.724
17.092,8.712
17.096,8.676
17.1,8.672
17.104,8.668
17.108,8.688
17.112,8.62
17.116,8.572
17.12,8.556
17.124,8.572
17.128,8.524
17.132,8.452
17.136,8.456
17.14,8.444
17.144,8.368
17.148,8.312
17.152,8.324
17.156,8.32
17.16,8.296
17.164,8.248
17.168,8.28
17.172,8.304
17.176,8.228
17.18,8.192
17.184,8.192
17.188,8.24
17.192,8.224
17.196,8.184
17.2,8.188
17.204,8.212
17.208,8.216
17.212,8.164
17.216,8.16
17.22,8.188
17.224,8.176
17.228,8.128
17.232,8.14
17.236,8.18
17.24,8.192
17.244,8.156
17.248,8.136
17.252,8.16
17.256,8.2
17.26,8.164
17.264,8.128
17.268,8.196
17.272,8.22
17.276,8.168
17.28,8.16
17.284,8.192
17.288,8.228
17.292,8.192
17.296,8.148
17.3,8.192
17.304,8.212
17.308,8.224
17.312,8.164
17.316,8.148
17.32,8.164
17.324,8.196
17.328,8.164
17.332,8.184
17.336,8.196
17.34,8.216
17.344,8.16
17.348,8.132
17.352,8.18
17.356,8.22
17.36,8.148
17.364,8.152
17.368,8.168
17.372,8.216
17.376,8.208
17.38,8.136
17.384,8.152
17.388,8.188
17.392,8.172
17.396,8.132
17.4,8.124
17.404,8.196
17.408,8.188
17.412,8.152
17.416,8.108
17.42,8.156
17.424,8.172
17.428,8.152
17.432,8.128
17.436,8.16
17.44,8.168
17.444,8.172
17.448,8.14
17.452,8.152
17.456,8.172
17.46,8.136
17.464,8.12
17.468,8.124
17.472,8.152
17.476,8.12
17.48,8.12
17.484,8.132
17.488,8.156
17.492,8.144
17.496,8.096
17.5,8.104
17.504,8.16
17.508,8.164
17.512,8.12
17.516,8.108
17.52,8.164
17.524,8.148
17.528,8.116
17.532,8.076
17.536,8.12
17.54,8.152
17.544,8.092
17.548,8.072
17.552,8.112
17.556,8.18
17.56,8.148
17.564,8.12
17.568,8.092
17.572,8.164
17.576,8.14
17.58,8.1
17.584,8.124
17.588,8.152
17.592,8.116
17.596,8.072
17.6,8.12
17.604,8.136
17.608,8.124
17.612,8.104
17.616,8.084
17.62,8.136
17.624,8.144
17.628,8.108
17.632,8.1
17.636,8.132
17.64,8.144
17.644,8.12
17.648,8.076
17.652,8.104
17.656,8.164
17.66,8.14
17.664,8.06
17.668,8.12
17.672,8.168
17.676,8.16
17.68,8.192
17.684,8.22
17.688,8.284
17.692,8.284
17.696,8.252
17.7,8.216
17.704,8.232
17.708,8.328
17.712,8.388
17.716,8.396
17.72,8.408
17.724,8.38
17.728,8.336
17.732,8.28
17.736,8.304
17.74,8.308
17.744,8.3
17.748,8.288
17.752,8.26
17.756,8.244
17.76,8.148
17.764,8.064
17.768,8.092
17.772,8.108
17.776,8.092
17.78,8.056
17.784,8.068
17.788,8.116
17.792,8.092
17.796,8.036
17.8,8.024
17.804,8.08
17.808,8.084
17.812,8.044
17.816,8.056
17.82,8.064
17.824,8.072
17.828,8.112
17.832,8.208
17.836,8.436
17.84,8.58
17.844,8.728
17.848,8.836
17.852,8.772
17.856,8.7
17.86,8.692
17.864,8.444
17.868,7.888
17.872,7.356
17.876,6.8
17.88,6.52
17.884,6.564
17.888,6.856
17.892,7.148
17.896,7.356
17.9,7.576
17.904,7.784
17.908,7.896
17.912,7.908
17.916,7.98
17.92,8.032
17.924,8.072
17.928,8.056
17.932,8.06
17.936,8.104
17.94,8.132
17.944,8.096
17.948,8.052
17.952,8.128
17.956,8.164
17.96,8.176
17.964,8.096
17.968,8.12
17.972,8.176
17.976,8.132
17.98,8.116
17.984,8.16
17.988,8.172
17.992,8.156
17.996,8.116
18,8.16
18.004,8.204
18.008,8.188
18.012,8.152
18.016,8.16
18.02,8.248
18.024,8.232
18.028,8.224
18.032,8.204
18.036,8.24
18.04,8.256
18.044,8.244
18.048,8.22
18.052,8.252
18.056,8.328
18.06,8.32
18.064,8.284
18.068,8.312
18.072,8.368
18.076,8.36
18.08,8.348
18.084,8.376
18.088,8.484
18.092,8.484
18.096,8.476
18.1,8.516
18.104,8.548
18.108,8.576
18.112,8.568
18.116,8.612
18.12,8.644
18.124,8.712
18.128,8.696
18.132,8.664
18.136,8.716
18.14,8.724
18.144,8.728
18.148,8.68
18.152,8.668
18.156,8.712
18.16,8.672
18.164,8.62
18.168,8.608
18.172,8.612
18.176,8.536
18.18,8.492
18.184,8.464
18.188,8.488
18.192,8.456
18.196,8.404
18.2,8.364
18.204,8.372
18.208,8.38
18.212,8.332
18.216,8.284
18.22,8.272
18.224,8.3
18.228,8.276
18.232,8.232
18.236,8.26
18.24,8.276
18.244,8.244
18.248,8.232
18.252,8.264
18.256,8.268
18.26,8.256
18.264,8.18
18.268,8.212
18.272,8.26
18.276,8.252
18.28,8.188
18.284,8.228
18.288,8.236
18.292,8.24
18.296,8.216
18.3,8.228
18.304,8.264
18.308,8.264
18.312,8.232
18.316,8.24
18.32,8.252
18.324,8.28
18.328,8.236
18.332,8.232
18.336,8.256
18.34,8.308
18.344,8.272
18.348,8.236
18.352,8.264
18.356,8.3
18.36,8.284
18.364,8.248
18.368,8.272
18.372,8.308
18.376,8.292
18.38,8.26
18.384,8.284
18.388,8.308
18.392,8.264
18.396,8.224
18.4,8.252
18.404,8.316
18.408,8.32
18.412,8.276
18.416,8.26
18.42,8.252
18.424,8.288
18.428,8.252
18.432,8.236
18.436,8.244
18.44,8.324
18.444,8.244
18.448,8.236
18.452,8.264
18.456,8.296
18.46,8.296
18.464,8.256
18.468,8.268
18.472,8.32
18.476,8.296
18.48,8.244
18.484,8.236
18.488,8.272
18.492,8.264
18.496,8.244
18.5,8.264
18.504,8.3
18.508,8.292
18.512,8.248
18.516,8.236
18.52,8.292
18.524,8.288
18.528,8.26
18.532,8.244
18.536,8.292
18.54,8.32
18.544,8.268
18.548,8.232
18.552,8.256
18.556,8.296
18.56,8.26
18.564,8.228
18.568,8.272
18.572,8.296
18.576,8.28
18.58,8.244
18.584,8.276
18.588,8.308
18.592,8.256
18.596,8.24
18.6,8.22
18.604,8.268
18.608,8.3
18.612,8.264
18.616,8.228
18.62,8.228
18.624,8.268
18.628,8.26
18.632,8.256
18.636,8.272
18.64,8.28
18.644,8.26
18.648,8.208
18.652,8.268
18.656,8.28
18.66,8.26
18.664,8.224
18.668,8.24
18.672,8.268
18.676,8.26
18.68,8.244
18.684,8.256
18.688,8.284
18.692,8.308
18.696,8.224
18.7,8.236
18.704,8.26
18.708,8.26
18.712,8.244
18.716,8.268
18.72,8.368
18.724,8.396
18.728,8.392
18.732,8.372
18.736,8.376
18.74,8.424
18.744,8.4
18.748,8.404
18.752,8.496
18.756,8.552
18.76,8.544
18.764,8.468
18.768,8.468
18.772,8.492
18.776,8.464
18.78,8.4
18.784,8.392
18.788,8.456
18.792,8.436
18.796,8.284
18.8,8.24
18.804,8.264
18.808,8.216
18.812,8.192
18.816,8.204
18.82,8.224
18.824,8.236
18.828,8.184
18.832,8.152
18.836,8.148
18.84,8.204
18.844,8.148
18.848,8.12
18.852,8.144
18.856,8.212
18.86,8.172
18.864,8.152
18.868,8.212
18.872,8.38
18.876,8.544
18.88,8.624
18.884,8.808
18.888,8.976
18.892,8.868
18.896,8.704
18.9,8.656
18.904,8.528
18.908,8.02
18.912,7.368
18.916,6.8
18.92,6.62
18.924,6.636
18.928,6.856
18.932,7.164
18.936,7.408
18.94,7.664
18.944,7.824
18.948,7.92
18.952,8.028
18.956,8.1
18.96,8.116
18.964,8.128
18.968,8.156
18.972,8.204
18.976,8.172
18.98,8.132
18.984,8.12
18.988,8.212
18.992,8.192
18.996,8.148
19,8.136
19.004,8.224
19.008,8.22
19.012,8.196
19.016,8.176
19.02,8.2
19.024,8.228
19.028,8.144
19.032,8.14
19.036,8.232
19.04,8.228
19.044,8.208
19.048,8.172
19.052,8.228
19.056,8.28
19.06,8.256
19.064,8.252
19.068,8.256
19.072,8.236
19.076,8.236
19.08,8.228
19.084,8.24
19.088,8.296
19.092,8.32
19.096,8.272
19.1,8.284
19.104,8.344
19.108,8.356
19.112,8.352
19.116,8.336
19.12,8.4
19.124,8.44
19.128,8.448
19.132,8.448
19.136,8.512
19.14,8.548
19.144,8.528
19.148,8.508
19.152,8.564
19.156,8.632
19.16,8.604
19.164,8.636
19.168,8.668
19.172,8.688
19.176,8.684
19.18,8.664
19.184,8.692
19.188,8.712
19.192,8.716
19.196,8.688
19.2,8.64
19.204,8.608
19.208,8.604
19.212,8.564
19.216,8.504
19.22,8.452
19.224,8.484
19.228,8.436
19.232,8.38
19.236,8.38
19.24,8.376
19.244,8.288
19.248,8.236
19.252,8.276
19.256,8.304
19.26,8.28
19.264,8.212
19.268,8.2
19.272,8.24
19.276,8.224
19.28,8.156
19.284,8.188
19.288,8.188
19.292,8.188
19.296,8.148
19.3,8.136
19.304,8.18
19.308,8.212
19.312,8.152
19.316,8.124
19.32,8.156
19.324,8.16
19.328,8.116
19.332,8.132
19.336,8.164
19.34,8.192
19.344,8.16
19.348,8.12
19.352,8.148
19.356,8.204
19.36,8.192
19.364,8.12
19.368,8.192
19.372,8.192
19.376,8.16
19.38,8.132
19.384,8.148
19.388,8.192
19.392,8.16
19.396,8.156
19.4,8.164
19.404,8.212
19.408,8.22
19.412,8.168
19.416,8.164
19.42,8.168
19.424,8.2
19.428,8.176
19.432,8.164
19.436,8.164
19.44,8.208
19.444,8.164
19.448,8.164
19.452,8.172
19.456,8.192
19.46,8.16
19.464,8.152
19.468,8.156
19.472,8.208
19.476,8.172
19.48,8.112
19.484,8.112
19.488,8.152
19.492,8.16
19.496,8.1
19.5,8.132
19.504,8.2
19.508,8.18
19.512,8.128
19.516,8.112
19.52,8.152
19.524,8.16
19.528,8.128
19.532,8.128
19.536,8.16
19.54,8.184
19.544,8.148
19.548,8.12
19.552,8.148
19.556,8.168
19.56,8.144
19.564,8.104
19.568,8.128
19.572,8.176
19.576,8.132
19.58,8.108
19.584,8.104
19.588,8.172
19.592,8.164
19.596,8.1
19.6,8.108
19.604,8.164
19.608,8.18
19.612,8.132
19.616,8.116
19.62,8.148
19.624,8.172
19.628,8.116
19.632,8.084
19.636,8.112
19.64,8.18
19.644,8.14
19.648,8.088
19.652,8.124
19.656,8.172
19.66,8.14
19.664,8.108
19.668,8.104
19.672,8.152
19.676,8.152
19.68,8.144
19.684,8.136
19.688,8.148
19.692,8.156
19.696,8.116
19.7,8.112
19.704,8.14
19.708,8.184
19.712,8.168
19.716,8.192
19.72,8.24
19.724,8.316
19.728,8.332
19.732,8.368
19.736,8.448
19.74,8.536
19.744,8.544
19.748,8.54
19.752,8.608
19.756,8.628
19.76,8.596
19.764,8.62
19.768,8.7
19.772,8.804
19.776,8.792
19.78,8.74
19.784,8.792
19.788,8.828
19.792,8.776
19.796,8.724
19.8,8.732
19.804,8.808
19.808,8.804
19.812,8.708
19.816,8.664
19.82,8.672
19.824,8.652
19.828,8.588
19.832,8.556
19.836,8.584
19.84,8.596
19.844,8.568
19.848,8.516
19.852,8.552
19.856,8.576
19.86,8.516
19.864,8.464
19.868,8.492
19.872,8.536
19.876,8.52
19.88,8.5
19.884,8.492
19.888,8.596
19.892,8.684
19.896,8.8
19.9,8.968
19.904,9.16
19.908,9.232
19.912,9.072
19.916,9.016
19.92,9.084
19.924,8.828
19.928,8.144
19.932,7.572
19.936,7.14
19.94,6.96
19.944,6.956
19.948,7.228
19.952,7.532
19.956,7.824
19.96,7.988
19.964,8.144
19.968,8.26
19.972,8.344
19.976,8.344
19.98,8.36
19.984,8.416
19.988,8.472
19.992,8.464
19.996,8.4
20,8.448
20.004,8.504
20.008,8.468
20.012,8.448
20.016,8.444
20.02,8.508
20.024,8.5
20.028,8.444
20.032,8.424
20.036,8.476
20.04,8.48
20.044,8.468
20.048,8.432
20.052,8.464
20.056,8.528
20.06,8.464
20.064,8.428
20.068,8.46
20.072,8.484
20.076,8.448
20.08,8.428
20.084,8.444
20.088,8.492
20.092,8.488
20.096,8.424
20.1,8.448
20.104,8.508
20.108,8.512
20.112,8.464
20.116,8.496
20.12,8.568
20.124,8.584
20.128,8.54
20.132,8.52
20.136,8.576
20.14,8.636
20.144,8.632
20.148,8.612
20.152,8.644
20.156,8.724
20.16,8.712
20.164,8.692
20.168,8.752
20.172,8.816
20.176,8.804
20.18,8.792
20.184,8.852
20.188,8.916
20.192,8.904
20.196,8.844
20.2,8.876
20.204,8.904
20.208,8.892
20.212,8.844
20.216,8.84
20.22,8.888
20.224,8.852
20.228,8.768
20.232,8.696
20.236,8.756
20.24,8.728
20.244,8.632
20.248,8.564
20.252,8.58
20.256,8.664
20.26,8.548
20.264,8.504
20.268,8.52
20.272,8.548
20.276,8.476
20.28,8.436
20.284,8.48
20.288,8.528
20.292,8.468
20.296,8.44
20.3,8.416
20.304,8.468
20.308,8.436
20.312,8.392
20.316,8.372
20.32,8.432
20.324,8.44
20.328,8.404
20.332,8.396
20.336,8.448
20.34,8.448
20.344,8.384
20.348,8.352
20.352,8.42
20.356,8.448
20.36,8.396
20.364,8.376
20.368,8.42
20.372,8.484
20.376,8.44
20.38,8.388
20.384,8.444
20.388,8.488
20.392,8.452
20.396,8.408
20.4,8.424
20.404,8.508
20.408,8.496
20.412,8.448
20.416,8.44
20.42,8.508
20.424,8.524
20.428,8.46
20.432,8.468
20.436,8.516
20.44,8.54
20.444,8.476
20.448,8.464
20.452,8.484
20.456,8.532
20.46,8.488
20.464,8.452
20.468,8.528
20.472,8.54
20.476,8.516
20.48,8.46
20.484,8.5
20.488,8.564
20.492,8.544
20.496,8.516
20.5,8.544
20.504,8.604
20.508,8.62
20.512,8.564
20.516,8.588
20.52,8.656
20.524,8.66
20.528,8.604
20.532,8.62
20.536,8.696
20.54,8.688
20.544,8.636
20.548,8.616
20.552,8.708
20.556,8.732
20.56,8.696
20.564,8.668
20.568,8.736
20.572,8.788
20.576,8.708
20.58,8.684
20.584,8.732
20.588,8.776
20.592,8.76
20.596,8.716
20.6,8.764
20.604,8.832
20.608,8.82
20.612,8.744
20.616,8.764
20.62,8.836
20.624,8.828
20.628,8.788
20.632,8.78
20.636,8.864
20.64,8.904
20.644,8.812
20.648,8.808
20.652,8.884
20.656,8.928
20.66,8.856
20.664,8.84
20.668,8.912
20.672,8.952
20.676,8.916
20.68,8.864
20.684,8.912
20.688,8.976
20.692,8.96
20.696,8.892
20.7,8.912
20.704,8.988
20.708,8.96
20.712,8.952
20.716,8.952
20.72,9.016
20.724,9.004
20.728,8.948
20.732,8.932
20.736,9.028
20.74,9.092
20.744,9.044
20.748,9.064
20.752,9.16
20.756,9.228
20.76,9.172
20.764,9.16
20.768,9.26
20.772,9.34
20.776,9.336
20.78,9.32
20.784,9.38
20.788,9.412
20.792,9.348
20.796,9.276
20.8,9.276
20.804,9.292
20.808,9.252
20.812,9.176
20.816,9.104
20.82,9.128
20.824,9.12
20.828,9.056
20.832,9.024
20.836,9.096
20.84,9.096
20.844,9.036
20.848,9.004
20.852,9.076
20.856,9.132
20.86,9.06
20.864,8.992
20.868,9.072
20.872,9.132
20.876,9.076
20.88,9.048
20.884,9.088
20.888,9.192
20.892,9.268
20.896,9.4
20.9,9.592
20.904,9.816
20.908,9.956
20.912,9.828
20.916,9.664
20.92,9.68
20.924,9.528
20.928,9.028
20.932,8.344
20.936,7.888
20.94,7.656
20.944,7.56
20.948,7.78
20.952,8.212
20.956,8.488
20.96,8.624
20.964,8.808
20.968,8.992
20.972,9.148
20.976,9.14
20.98,9.108
20.984,9.196
20.988,9.22
20.992,9.216
20.996,9.204
21,9.24
21.004,9.272
21.008,9.248
21.012,9.204
21.016,9.204
21.02,9.336
21.024,9.312
21.028,9.26
21.032,9.252
21.036,9.3
21.04,9.328
21.044,9.284
21.048,9.28
21.052,9.348
21.056,9.4
21.06,9.336
21.064,9.288
21.068,9.368
21.072,9.404
21.076,9.368
21.08,9.324
21.084,9.372
21.088,9.476
21.092,9.444
21.096,9.372
21.1,9.424
21.104,9.496
21.108,9.492
21.112,9.476
21.116,9.48
21.12,9.592
21.124,9.612
21.128,9.54
21.132,9.556
21.136,9.644
21.14,9.696
21.144,9.644
21.148,9.62
21.152,9.752
21.156,9.84
21.16,9.728
21.164,9.732
21.168,9.844
21.172,9.928
21.176,9.896
21.18,9.848
21.184,9.932
21.188,9.992
21.192,9.948
21.196,9.92
21.2,9.956
21.204,10.028
21.208,9.988
21.212,9.952
21.216,10.008
21.22,10.004
21.224,9.96
21.228,9.892
21.232,9.816
21.236,9.86
21.24,9.856
21.244,9.74
21.248,9.704
21.252,9.812
21.256,9.796
21.26,9.708
21.264,9.672
21.268,9.672
21.272,9.696
21.276,9.664
21.28,9.556
21.284,9.584
21.288,9.692
21.292,9.664
21.296,9.58
21.3,9.592
21.304,9.604
21.308,9.548
21.312,9.552
21.316,9.556
21.32,9.604
21.324,9.64
21.328,9.564
21.332,9.572
21.336,9.62
21.34,9.632
21.344,9.544
21.348,9.564
21.352,9.648
21.356,9.672
21.36,9.588
21.364,9.528
21.368,9.596
21.372,9.648
21.376,9.628
21.38,9.576
21.384,9.596
21.388,9.696
21.392,9.66
21.396,9.604
21.4,9.668
21.404,9.72
21.408,9.688
21.412,9.612
21.416,9.6
21.42,9.688
21.424,9.748
21.428,9.68
21.432,9.644
21.436,9.716
21.44,9.732
21.444,9.676
21.448,9.656
21.452,9.752
21.456,9.792
21.46,9.72
21.464,9.656
21.468,9.72
21.472,9.78
21.476,9.7
21.48,9.668
21.484,9.728
21.488,9.784
21.492,9.784
21.496,9.724
21.5,9.74
21.504,9.808
21.508,9.772
21.512,9.708
21.516,9.668
21.52,9.736
21.524,9.812
21.528,9.768
21.532,9.732
21.536,9.784
21.54,9.78
21.544,9.672
21.548,9.72
21.552,9.8
21.556,9.816
21.56,9.724
21.564,9.716
21.568,9.828
21.572,9.812
21.576,9.796
21.58,9.744
21.584,9.844
21.588,9.872
21.592,9.824
21.596,9.756
21.6,9.792
21.604,9.892
21.608,9.872
21.612,9.752
21.616,9.772
21.62,9.836
21.624,9.896
21.628,9.776
21.632,9.796
21.636,9.876
21.64,9.896
21.644,9.8
21.648,9.78
21.652,9.844
21.656,9.924
21.66,9.856
21.664,9.848
21.668,9.924
21.672,9.952
21.676,9.876
21.68,9.796
21.684,9.864
21.688,9.932
21.692,9.856
21.696,9.828
21.7,9.868
21.704,9.964
21.708,9.972
21.712,9.908
21.716,9.876
21.72,9.972
21.724,10.02
21.728,10.024
21.732,10.068
21.736,10.112
21.74,10.084
21.744,10.044
21.748,10.04
21.752,10.184
21.756,10.26
21.76,10.22
21.764,10.152
21.768,10.176
21.772,10.236
21.776,10.228
21.78,10.172
21.784,10.116
21.788,10.168
21.792,10.032
21.796,9.924
21.8,9.98
21.804,10.04
21.808,9.932
21.812,9.884
21.816,9.884
21.82,9.908
21.824,9.868
21.828,9.864
21.832,9.904
21.836,9.992
21.84,9.936
21.844,9.868
21.848,9.788
21.852,9.852
21.856,9.972
21.86,9.976
21.864,9.888
21.868,9.928
21.872,10.104
21.876,10.22
21.88,10.276
21.884,10.428
21.888,10.704
21.892,10.684
21.896,10.476
21.9,10.528
21.904,10.472
21.908,10.072
21.912,9.348
21.916,8.748
21.92,8.52
21.924,8.52
21.928,8.568
21.932,8.832
21.936,9.184
21.94,9.44
21.944,9.556
21.948,9.672
21.952,9.84
21.956,9.904
21.96,9.86
21.964,9.852
21.968,9.888
21.972,9.996
21.976,9.992
21.98,9.948
21.984,9.996
21.988,10.092
21.992,10.048
21.996,9.964
22,9.996
22.004,10.076
22.008,10.084
22.012,10.028
22.016,9.984
22.02,10.036
22.024,10.088
22.028,10.036
22.032,9.972
22.036,10.104
22.04,10.132
22.044,10.072
22.048,9.996
22.052,10.12
22.056,10.184
22.06,10.076
22.064,10.04
22.068,10.14
22.072,10.184
22.076,10.124
22.08,10.092
22.084,10.18
22.088,10.208
22.092,10.188
22.096,10.16
22.1,10.192
22.104,10.276
22.108,10.284
22.112,10.256
22.116,10.228
22.12,10.332
22.124,10.372
22.128,10.304
22.132,10.348
22.136,10.424
22.14,10.444
22.144,10.42
22.148,10.468
22.152,10.552
22.156,10.532
22.16,10.54
22.164,10.536
22.168,10.608
22.172,10.656
22.176,10.584
22.18,10.536
22.184,10.572
22.188,10.636
22.192,10.596
22.196,10.524
22.2,10.528
22.204,10.544
22.208,10.556
22.212,10.464
22.216,10.408
22.22,10.492
22.224,10.416
22.228,10.372
22.232,10.284
22.236,10.336
22.24,10.36
22.244,10.26
22.248,10.16
22.252,10.192
22.256,10.276
22.26,10.176
22.264,10.104
22.268,10.16
22.272,10.2
22.276,10.128
22.28,10.088
22.284,10.156
22.288,10.192
22.292,10.148
22.296,10.072
22.3,10.076
22.304,10.116
22.308,10.136
22.312,10.088
22.316,10.068
22.32,10.128
22.324,10.172
22.328,10.096
22.332,10.048
22.336,10.148
22.34,10.176
22.344,10.072
22.348,10.092
22.352,10.2
22.356,10.24
22.36,10.148
22.364,10.116
22.368,10.156
22.372,10.22
22.376,10.144
22.38,10.068
22.384,10.14
22.388,10.208
22.392,10.164
22.396,10.128
22.4,10.116
22.404,10.184
22.408,10.184
22.412,10.092
22.416,10.096
22.42,10.192
22.424,10.2
22.428,10.144
22.432,10.104
22.436,10.156
22.44,10.212
22.444,10.136
22.448,10.064
22.452,10.156
22.456,10.176
22.46,10.14
22.464,10.088
22.468,10.14
22.472,10.16
22.476,10.1
22.48,10.088
22.484,10.144
22.488,10.144
22.492,10.108
22.496,10.1
22.5,10.112
22.504,10.164
22.508,10.14
22.512,10.064
22.516,10.06
22.52,10.148
22.524,10.184
22.528,10.112
22.532,10.056
22.536,10.18
22.54,10.2
22.544,10.152
22.548,10.088
22.552,10.2
22.556,10.228
22.56,10.18
22.564,10.136
22.568,10.164
22.572,10.192
22.576,10.144
22.58,10.076
22.584,10.104
22.588,10.18
22.592,10.164
22.596,10.1
22.6,10.16
22.604,10.184
22.608,10.164
22.612,10.108
22.616,10.112
22.62,10.188
22.624,10.176
22.628,10.128
22.632,10.112
22.636,10.148
22.64,10.18
22.644,10.136
22.648,10.088
22.652,10.136
22.656,10.188
22.66,10.112
22.664,10.092
22.668,10.156
22.672,10.176
22.676,10.16
22.68,10.12
22.684,10.12
22.688,10.164
22.692,10.188
22.696,10.192
22.7,10.24
22.704,10.348
22.708,10.324
22.712,10.24
22.716,10.244
22.72,10.304
22.724,10.432
22.728,10.396
22.732,10.424
22.736,10.468
22.74,10.492
22.744,10.388
22.748,10.352
22.752,10.388
22.756,10.356
22.76,10.288
22.764,10.208
22.768,10.204
22.772,10.232
22.776,10.164
22.78,10.092
22.784,10.116
22.788,10.188
22.792,10.128
22.796,10.072
22.8,10.1
22.804,10.144
22.808,10.116
22.812,10.036
22.816,10.068
22.82,10.132
22.824,10.12
22.828,10.04
22.832,10.104
22.836,10.144
22.84,10.24
22.844,10.264
22.848,10.4
22.852,10.672
22.856,10.92
22.86,11.004
22.864,10.9
22.868,10.86
22.872,10.956
22.876,10.696
22.88,10.004
22.884,9.368
22.888,8.88
22.892,8.608
22.896,8.584
22.9,8.912
22.904,9.304
22.908,9.492
22.912,9.576
22.916,9.768
22.92,9.972
22.924,10.076
22.928,10.016
22.932,10.028
22.936,10.124
22.94,10.144
22.944,10.12
22.948,10.076
22.952,10.184
22.956,10.2
22.96,10.144
22.964,10.064
22.968,10.168
22.972,10.244
22.976,10.192
22.98,10.156
22.984,10.184
22.988,10.264
22.992,10.212
22.996,10.16
23,10.184
23.004,10.24
23.008,10.232
23.012,10.136
23.016,10.18
23.02,10.212
23.024,10.26
23.028,10.248
23.032,10.164
23.036,10.236
23.04,10.292
23.044,10.208
23.048,10.196
23.052,10.296
23.056,10.324
23.06,10.252
23.064,10.172
23.068,10.272
23.072,10.352
23.076,10.308
23.08,10.324
23.084,10.316
23.088,10.416
23.092,10.38
23.096,10.312
23.1,10.412
23.104,10.456
23.108,10.5
23.112,10.444
23.116,10.456
23.12,10.548
23.124,10.628
23.128,10.592
23.132,10.58
23.136,10.676
23.14,10.7
23.144,10.676
23.148,10.628
23.152,10.704
23.156,10.716
23.16,10.66
23.164,10.624
23.168,10.644
23.172,10.664
23.176,10.58
23.18,10.472
23.184,10.528
23.188,10.576
23.192,10.512
23.196,10.412
23.2,10.392
23.204,10.44
23.208,10.412
23.212,10.296
23.216,10.276
23.22,10.28
23.224,10.284
23.228,10.256
23.232,10.2
23.236,10.264
23.24,10.296
23.244,10.176
23.248,10.148
23.252,10.204
23.256,10.268
23.26,10.18
23.264,10.12
23.268,10.192
23.272,10.224
23.276,10.148
23.28,10.108
23.284,10.16
23.288,10.24
23.292,10.224
23.296,10.16
23.3,10.12
23.304,10.216
23.308,10.2
23.312,10.104
23.316,10.12
23.32,10.168
23.324,10.22
23.328,10.144
23.332,10.132
23.336,10.168
23.34,10.172
23.344,10.176
23.348,10.152
23.352,10.24
23.356,10.256
23.36,10.188
23.364,10.152
23.368,10.196
23.372,10.248
23.376,10.184
23.38,10.132
23.384,10.164
23.388,10.24
23.392,10.26
23.396,10.188
23.4,10.2
23.404,10.26
23.408,10.228
23.412,10.168
23.416,10.132
23.42,10.216
23.424,10.26
23.428,10.16
23.432,10.128
23.436,10.2
23.44,10.236
23.444,10.164
23.448,10.128
23.452,10.208
23.456,10.192
23.46,10.128
23.464,10.072
23.468,10.196
23.472,10.296
23.476,10.22
23.48,10.148
23.484,10.188
23.488,10.232
23.492,10.184
23.496,10.152
23.5,10.152
23.504,10.236
23.508,10.22
23.512,10.12
23.516,10.124
23.52,10.228
23.524,10.272
23.528,10.204
23.532,10.156
23.536,10.252
23.54,10.24
23.544,10.16
23.548,10.144
23.552,10.216
23.556,10.28
23.56,10.228
23.564,10.156
23.568,10.2
23.572,10.228
23.576,10.176
23.58,10.116
23.584,10.164
23.588,10.244
23.592,10.236
23.596,10.156
23.6,10.18
23.604,10.268
23.608,10.256
23.612,10.152
23.616,10.148
23.62,10.252
23.624,10.284
23.628,10.204
23.632,10.176
23.636,10.248
23.64,10.264
23.644,10.172
23.648,10.124
23.652,10.24
23.656,10.296
23.66,10.216
23.664,10.164
23.668,10.22
23.672,10.284
23.676,10.236
23.68,10.172
23.684,10.236
23.688,10.3
23.692,10.324
23.696,10.284
23.7,10.324
23.704,10.38
23.708,10.344
23.712,10.304
23.716,10.392
23.72,10.476
23.724,10.54
23.728,10.488
23.732,10.484
23.736,10.516
23.74,10.532
23.744,10.444
23.748,10.384
23.752,10.4
23.756,10.424
23.76,10.284
23.764,10.228
23.768,10.228
23.772,10.252
23.776,10.16
23.78,10.096
23.784,10.136
23.788,10.2
23.792,10.136
23.796,10.04
23.8,10.084
23.804,10.176
23.808,10.172
23.812,10.088
23.816,10.096
23.82,10.164
23.824,10.156
23.828,10.108
23.832,10.084
23.836,10.16
23.84,10.284
23.844,10.388
23.848,10.496
23.852,10.716
23.856,10.956
23.86,10.972
23.864,10.768
23.868,10.728
23.872,10.688
23.876,10.312
23.88,9.56
23.884,8.968
23.888,8.624
23.892,8.488
23.896,8.608
23.9,8.98
23.904,9.328
23.908,9.528
23.912,9.652
23.916,9.864
23.92,9.984
23.924,10.036
23.928,10.044
23.932,10.012
23.936,10.144
23.94,10.156
23.944,10.112
23.948,10.088
23.952,10.156
23.956,10.192
23.96,10.104
23.964,10.076
23.968,10.16
23.972,10.224
23.976,10.164
23.98,10.084
23.984,10.124
23.988,10.212
23.992,10.184
23.996,10.112
24,10.16
24.004,10.228
24.008,10.224
24.012,10.136
24.016,10.128
24.02,10.18
24.024,10.236
24.028,10.184
24.032,10.164
24.036,10.232
24.04,10.26
24.044,10.2
24.048,10.172
24.052,10.244
24.056,10.316
24.06,10.24
24.064,10.2
24.068,10.268
24.072,10.32
24.076,10.304
24.08,10.264
24.084,10.336
24.088,10.38
24.092,10.348
24.096,10.312
24.1,10.36
24.104,10.464
24.108,10.492
24.112,10.424
24.116,10.444
24.12,10.508
24.124,10.576
24.128,10.568
24.132,10.56
24.136,10.648
24.14,10.672
24.144,10.624
24.148,10.592
24.152,10.656
24.156,10.692
24.16,10.604
24.164,10.508
24.168,10.592
24.172,10.636
24.176,10.564
24.18,10.504
24.184,10.496
24.188,10.488
24.192,10.476
24.196,10.4
24.2,10.424
24.204,10.42
24.208,10.372
24.212,10.288
24.216,10.252
24.22,10.276
24.224,10.296
24.228,10.188
24.232,10.168
24.236,10.236
24.24,10.272
24.244,10.152
24.248,10.112
24.252,10.184
24.256,10.208
24.26,10.156
24.264,10.088
24.268,10.156
24.272,10.2
24.276,10.144
24.28,10.088
24.284,10.124
24.288,10.188
24.292,10.18
24.296,10.096
24.3,10.124
24.304,10.172
24.308,10.2
24.312,10.16
24.316,10.148
24.32,10.196
24.324,10.204
24.328,10.132
24.332,10.092
24.336,10.188
24.34,10.224
24.344,10.16
24.348,10.068
24.352,10.172
24.356,10.188
24.36,10.16
24.364,10.132
24.368,10.152
24.372,10.252
24.376,10.168
24.38,10.092
24.384,10.104
24.388,10.188
24.392,10.192
24.396,10.152
24.4,10.14
24.404,10.188
24.408,10.184
24.412,10.104
24.416,10.104
24.42,10.2
24.424,10.228
24.428,10.144
24.432,10.072
24.436,10.132
24.44,10.14
24.444,10.104
24.448,10.088
24.452,10.148
24.456,10.192
24.46,10.14
24.464,10.064
24.468,10.104
24.472,10.16
24.476,10.104
24.48,10.104
24.484,10.164
24.488,10.168
24.492,10.116
24.496,10.084
24.5,10.116
24.504,10.176
24.508,10.172
24.512,10.044
24.516,10.048
24.52,10.152
24.524,10.176
24.528,10.096
24.532,10.064
24.536,10.136
24.54,10.156
24.544,10.072
24.548,10.048
24.552,10.128
24.556,10.144
24.56,10.068
24.564,10.06
24.568,10.092
24.572,10.136
24.576,10.124
24.58,10.04
24.584,10.068
24.588,10.168
24.592,10.144
24.596,10.028
24.6,10.036
24.604,10.096
24.608,10.092
24.612,10.064
24.616,10.036
24.62,10.112
24.624,10.148
24.628,10.1
24.632,10.064
24.636,10.104
24.64,10.12
24.644,10.076
24.648,10.032
24.652,10.096
24.656,10.144
24.66,10.068
24.664,10.012
24.668,10.076
24.672,10.152
24.676,10.084
24.68,10.032
24.684,10.072
24.688,10.152
24.692,10.132
24.696,10.084
24.7,10.1
24.704,10.208
24.708,10.244
24.712,10.216
24.716,10.208
24.72,10.244
24.724,10.272
24.728,10.256
24.732,10.272
24.736,10.404
24.74,10.424
24.744,10.376
24.748,10.284
24.752,10.36
24.756,10.408
24.76,10.34
24.764,10.26
24.768,10.284
24.772,10.288
24.776,10.184
24.78,10.024
24.784,10.08
24.788,10.152
24.792,10.1
24.796,9.984
24.8,9.996
24.804,10.052
24.808,10.056
24.812,9.972
24.816,9.964
24.82,10.076
24.824,10.072
24.828,10.012
24.832,9.972
24.836,10.06
24.84,10.108
24.844,10.016
24.848,9.976
24.852,10.136
24.856,10.336
24.86,10.436
24.864,10.516
24.868,10.704
24.872,10.856
24.876,10.628
24.88,10.468
24.884,10.52
24.888,10.268
24.892,9.592
24.896,8.984
24.9,8.588
24.904,8.476
24.908,8.632
24.912,8.848
24.916,9.084
24.92,9.38
24.924,9.596
24.928,9.728
24.932,9.8
24.936,9.94
24.94,10.008
24.944,9.972
24.948,9.884
24.952,9.94
24.956,10.08
24.96,10.052
24.964,10.036
24.968,10.096
24.972,10.148
24.976,10.056
24.98,9.972
24.984,10.016
24.988,10.108
24.992,10.08
24.996,10.024
25,10.044
25.004,10.108
25.008,10.064
25.012,10.02
25.016,10.012
25.02,10.092
25.024,10.14
25.028,10.08
25.032,10.02
25.036,10.116
25.04,10.12
25.044,10.092
25.048,10.08
25.052,10.14
25.056,10.18
25.06,10.08
25.064,10.068
25.068,10.144
25.072,10.188
25.076,10.136
25.08,10.052
25.084,10.184
25.088,10.24
25.092,10.244
25.096,10.136
25.1,10.184
25.104,10.304
25.108,10.32
25.112,10.268
25.116,10.248
25.12,10.372
25.124,10.424
25.128,10.34
25.132,10.312
25.136,10.444
25.14,10.536
25.144,10.476
25.148,10.436
25.152,10.5
25.156,10.54
25.16,10.512
25.164,10.464
25.168,10.504
25.172,10.52
25.176,10.496
25.18,10.408
25.184,10.408
25.188,10.468
25.192,10.42
25.196,10.316
25.2,10.316
25.204,10.36
25.208,10.324
25.212,10.24
25.216,10.216
25.22,10.248
25.224,10.264
25.228,10.172
25.232,10.104
25.236,10.16
25.24,10.212
25.244,10.104
25.248,10.032
25.252,10.064
25.256,10.14
25.26,10.072
25.264,9.976
25.268,10.056
25.272,10.112
25.276,10.032
25.28,9.952
25.284,10.032
25.288,10.092
25.292,10.08
25.296,9.98
25.3,9.964
25.304,10.036
25.308,10.036
25.312,10.016
25.316,9.948
25.32,10.048
25.324,10.084
25.328,10.012
25.332,9.972
25.336,10.052
25.34,10.1
25.344,10.02
25.348,9.988
25.352,10
25.356,10.06
25.36,10.036
25.364,10.016
25.368,10.064
25.372,10.092
25.376,10.064
25.38,9.98
25.384,10.048
25.388,10.08
25.392,10.036
25.396,9.976
25.4,10.024
25.404,10.096
25.408,10.084
25.412,9.972
25.416,9.964
25.42,10.04
25.424,10.064
25.428,10.008
25.432,9.98
25.436,10.016
25.44,10.068
25.444,10.008
25.448,9.92
25.452,10.032
25.456,10.088
25.46,10.016
25.464,9.936
25.468,9.96
25.472,10.076
25.476,9.992
25.48,9.968
25.484,10.008
25.488,10.048
25.492,10.008
25.496,9.956
25.5,9.972
25.504,10.052
25.508,10.008
25.512,9.96
25.516,9.948
25.52,10.024
25.524,10.012
25.528,9.984
25.532,9.944
25.536,10.028
25.54,10.064
25.544,9.968
25.548,9.916
25.552,10.024
25.556,10.028
25.56,9.916
25.564,9.92
25.568,10.004
25.572,10.064
25.576,9.976
25.58,9.916
25.584,9.952
25.588,10.024
25.592,9.98
25.596,9.932
25.6,9.972
25.604,10.008
25.608,9.996
25.612,9.932
25.616,9.916
25.62,10.024
25.624,10.036
25.628,9.928
25.632,9.912
25.636,9.992
25.64,10.048
25.644,9.932
25.648,9.868
25.652,9.972
25.656,10.016
25.66,9.98
25.664,9.904
25.668,9.972
25.672,10.024
25.676,9.94
25.68,9.932
25.684,9.952
25.688,10.008
25.692,10.02
25.696,9.996
25.7,10.032
25.704,10.144
25.708,10.124
25.712,10.048
25.716,9.98
25.72,10.096
25.724,10.212
25.728,10.224
25.732,10.156
25.736,10.228
25.74,10.272
25.744,10.136
25.748,10.092
25.752,10.152
25.756,10.192
25.76,10.14
25.764,10.032
25.768,9.984
25.772,10.004
25.776,9.92
25.78,9.844
25.784,9.884
25.788,9.964
25.792,9.924
25.796,9.856
25.8,9.832
25.804,9.896
25.808,9.884
25.812,9.82
25.816,9.812
25.82,9.88
25.824,9.896
25.828,9.82
25.832,9.792
25.836,9.856
25.84,9.956
25.844,9.932
25.848,10.028
25.852,10.264
25.856,10.436
25.86,10.544
25.864,10.608
25.868,10.576
25.872,10.5
25.876,10.424
25.88,10.144
25.884,9.564
25.888,9.012
25.892,8.464
25.896,8.252
25.9,8.28
25.904,8.688
25.908,9.024
25.912,9.14
25.916,9.324
25.92,9.56
25.924,9.688
25.928,9.676
25.932,9.712
25.936,9.824
25.94,9.86
25.944,9.808
25.948,9.76
25.952,9.788
25.956,9.868
25.96,9.832
25.964,9.82
25.968,9.888
25.972,9.916
25.976,9.828
25.98,9.776
25.984,9.86
25.988,9.916
25.992,9.904
25.996,9.852
26,9.856
26.004,9.88
26.008,9.864
26.012,9.852
26.016,9.84
26.02,9.9
26.024,9.924
26.028,9.864
26.032,9.868
26.036,9.928
26.04,9.968
26.044,9.88
26.048,9.84
26.052,9.884
26.056,9.928
26.06,9.928
26.064,9.896
26.068,9.944
26.072,9.996
26.076,9.984
26.08,9.948
26.084,9.94
26.088,10.004
26.092,10.02
26.096,10.036
26.1,10.08
26.104,10.168
26.108,10.172
26.112,10.12
26.116,10.104
26.12,10.212
26.124,10.244
26.128,10.192
26.132,10.204
26.136,10.256
26.14,10.312
26.144,10.288
26.148,10.232
26.152,10.296
26.156,10.32
26.16,10.276
26.164,10.256
26.168,10.276
26.172,10.308
26.176,10.208
26.18,10.12
26.184,10.168
26.188,10.188
26.192,10.16
26.196,10.088
26.2,10.056
26.204,10.096
26.208,10.092
26.212,10.016
26.216,9.92
26.22,9.98
26.224,9.98
26.228,9.912
26.232,9.896
26.236,9.936
26.24,9.992
26.244,9.864
26.248,9.796
26.252,9.812
26.256,9.9
26.26,9.844
26.264,9.82
26.268,9.836
26.272,9.868
26.276,9.812
26.28,9.784
26.284,9.82
26.288,9.864
26.292,9.852
26.296,9.768
26.3,9.74
26.304,9.828
26.308,9.824
26.312,9.76
26.316,9.736
26.32,9.8
26.324,9.828
26.328,9.792
26.332,9.784
26.336,9.836
26.34,9.872
26.344,9.812
26.348,9.76
26.352,9.812
26.356,9.868
26.36,9.812
26.364,9.784
26.368,9.828
26.372,9.88
26.376,9.852
26.38,9.764
26.384,9.768
26.388,9.856
26.392,9.828
26.396,9.772
26.4,9.74
26.404,9.78
26.408,9.844
26.412,9.804
26.416,9.772
26.42,9.816
26.424,9.82
26.428,9.78
26.432,9.76
26.436,9.816
26.44,9.872
26.444,9.784
26.448,9.732
26.452,9.78
26.456,9.868
26.46,9.784
26.464,9.736
26.468,9.776
26.472,9.816
26.476,9.784
26.48,9.736
26.484,9.74
26.488,9.832
26.492,9.816
26.496,9.76
26.5,9.74
26.504,9.776
26.508,9.792
26.512,9.78
26.516,9.728
26.52,9.796
26.524,9.796
26.528,9.752
26.532,9.72
26.536,9.788
26.54,9.82
26.544,9.764
26.548,9.724
26.552,9.772
26.556,9.812
26.56,9.724
26.564,9.676
26.568,9.78
26.572,9.812
26.576,9.756
26.58,9.732
26.584,9.76
26.588,9.812
26.592,9.744
26.596,9.672
26.6,9.748
26.604,9.78
26.608,9.776
26.612,9.708
26.616,9.736
26.62,9.796
26.624,9.784
26.628,9.708
26.632,9.692
26.636,9.772
26.64,9.748
26.644,9.7
26.648,9.68
26.652,9.752
26.656,9.788
26.66,9.712
26.664,9.7
26.668,9.72
26.672,9.8
26.676,9.764
26.68,9.756
26.684,9.768
26.688,9.872
26.692,9.852
26.696,9.832
26.7,9.864
26.704,9.888
26.708,9.844
26.712,9.884
26.716,9.936
26.72,10.056
26.724,10.044
26.728,9.996
26.732,9.932
26.736,9.964
26.74,9.996
26.744,9.928
26.748,9.852
26.752,9.896
26.756,9.904
26.76,9.768
26.764,9.712
26.768,9.704
26.772,9.736
26.776,9.68
26.78,9.636
26.784,9.68
26.788,9.724
26.792,9.668
26.796,9.628
26.8,9.612
26.804,9.664
26.808,9.656
26.812,9.616
26.816,9.584
26.82,9.696
26.824,9.676
26.828,9.576
26.832,9.584
26.836,9.796
26.84,10.056
26.844,10.128
26.848,10.288
26.852,10.488
26.856,10.504
26.86,10.216
26.864,10.116
26.868,10.064
26.872,9.66
26.876,8.904
26.88,8.312
26.884,8.04
26.888,8.128
26.892,8.296
26.896,8.568
26.9,8.82
26.904,9.076
26.908,9.304
26.912,9.368
26.916,9.424
26.92,9.56
26.924,9.6
26.928,9.572
26.932,9.552
26.936,9.576
26.94,9.62
26.944,9.584
26.948,9.592
26.952,9.62
26.956,9.688
26.96,9.632
26.964,9.612
26.968,9.644
26.972,9.672
26.976,9.644
26.98,9.6
26.984,9.58
26.988,9.616
26.992,9.656
26.996,9.616
27,9.628
27.004,9.672
27.008,9.7
27.012,9.628
27.016,9.616
27.02,9.72
27.024,9.74
27.028,9.676
27.032,9.652
27.036,9.724
27.04,9.756
27.044,9.676
27.048,9.684
27.052,9.72
27.056,9.772
27.06,9.728
27.064,9.696
27.068,9.76
27.072,9.82
27.076,9.788
27.08,9.736
27.084,9.788
27.088,9.88
27.092,9.876
27.096,9.856
27.1,9.88
27.104,9.924
27.108,9.924
27.112,9.908
27.116,9.924
27.12,10.012
27.124,10.076
27.128,10.032
27.132,10.032
27.136,10.108
27.14,10.112
27.144,10.06
27.148,10.068
27.152,10.1
27.156,10.108
27.16,9.988
27.164,9.996
27.168,10.036
27.172,10.012
27.176,9.948
27.18,9.836
27.184,9.82
27.188,9.868
27.192,9.844
27.196,9.78
27.2,9.772
27.204,9.812
27.208,9.772
27.212,9.74
27.216,9.672
27.22,9.716
27.224,9.748
27.228,9.636
27.232,9.64
27.236,9.708
27.24,9.692
27.244,9.624
27.248,9.532
27.252,9.588
27.256,9.616
27.26,9.58
27.264,9.54
27.268,9.556
27.272,9.632
27.276,9.58
27.28,9.516
27.284,9.54
27.288,9.596
27.292,9.572
27.296,9.56
27.3,9.6
27.304,9.652
27.308,9.656
27.312,9.584
27.316,9.56
27.32,9.624
27.324,9.676
27.328,9.616
27.332,9.592
27.336,9.624
27.34,9.688
27.344,9.628
27.348,9.588
27.352,9.612
27.356,9.688
27.36,9.632
27.364,9.556
27.368,9.62
27.372,9.684
27.376,9.64
27.38,9.58
27.384,9.636
27.388,9.656
27.392,9.632
27.396,9.572
27.4,9.572
27.404,9.664
27.408,9.66
27.412,9.6
27.416,9.572
27.42,9.628
27.424,9.652
27.428,9.576
27.432,9.548
27.436,9.624
27.44,9.644
27.444,9.592
27.448,9.532
27.452,9.596
27.456,9.64
27.46,9.6
27.464,9.56
27.468,9.588
27.472,9.668
27.476,9.58
27.48,9.48
27.484,9.536
27.488,9.604
27.492,9.616
27.496,9.552
27.5,9.524
27.504,9.64
27.508,9.604
27.512,9.528
27.516,9.492
27.52,9.544
27.524,9.628
27.528,9.552
27.532,9.508
27.536,9.56
27.54,9.58
27.544,9.532
27.548,9.536
27.552,9.58
27.556,9.628
27.56,9.536
27.564,9.484
27.568,9.488
27.572,9.588
27.576,9.556
27.58,9.476
27.584,9.54
27.588,9.584
27.592,9.592
27.596,9.504
27.6,9.476
27.604,9.544
27.608,9.576
27.612,9.476
27.616,9.52
27.62,9.56
27.624,9.592
27.628,9.496
27.632,9.464
27.636,9.524
27.64,9.568
27.644,9.492
27.648,9.472
27.652,9.564
27.656,9.608
27.66,9.604
27.664,9.576
27.668,9.62
27.672,9.676
27.676,9.632
27.68,9.636
27.684,9.656
27.688,9.748
27.692,9.748
27.696,9.74
27.7,9.772
27.704,9.828
27.708,9.852
27.712,9.788
27.716,9.712
27.72,9.684
27.724,9.716
27.728,9.656
27.732,9.548
27.736,9.556
27.74,9.528
27.744,9.468
27.748,9.424
27.752,9.44
27.756,9.472
27.76,9.428
27.764,9.372
27.768,9.392
27.772,9.392
27.776,9.416
27.78,9.392
27.784,9.384
27.788,9.456
27.792,9.448
27.796,9.372
27.8,9.356
27.804,9.428
27.808,9.468
27.812,9.556
27.816,9.712
27.82,9.964
27.824,10.14
27.828,10.248
27.832,10.124
27.836,10.076
27.84,10.052
27.844,9.764
27.848,9.1
27.852,8.464
27.856,7.972
27.86,7.768
27.864,7.832
27.868,8.22
27.872,8.6
27.876,8.732
27.88,8.872
27.884,9.092
27.888,9.264
27.892,9.308
27.896,9.284
27.9,9.272
27.904,9.348
27.908,9.348
27.912,9.316
27.916,9.332
27.92,9.408
27.924,9.452
27.928,9.408
27.932,9.38
27.936,9.392
27.94,9.412
27.944,9.372
27.948,9.368
27.952,9.416
27.956,9.46
27.96,9.428
27.964,9.364
27.968,9.4
27.972,9.444
27.976,9.412
27.98,9.396
27.984,9.368
27.988,9.452
27.992,9.432
27.996,9.424
28,9.376
28.004,9.428
28.008,9.448
28.012,9.408
28.016,9.4
28.02,9.496
28.024,9.536
28.028,9.456
28.032,9.388
28.036,9.452
28.04,9.568
28.044,9.516
28.048,9.516
28.052,9.604
28.056,9.664
28.06,9.532
28.064,9.54
28.068,9.616
28.072,9.68
28.076,9.68
28.08,9.628
28.084,9.676
28.088,9.736
28.092,9.744
28.096,9.74
28.1,9.752
28.104,9.86
28.108,9.88
28.112,9.8
28.116,9.776
28.12,9.82
28.124,9.876
28.128,9.796
28.132,9.792
28.136,9.796
28.14,9.824
28.144,9.716
28.148,9.664
28.152,9.676
28.156,9.676
28.16,9.62
28.164,9.54
28.168,9.536
28.172,9.548
28.176,9.56
28.18,9.5
28.184,9.476
28.188,9.524
28.192,9.488
28.196,9.392
28.2,9.364
28.204,9.448
28.208,9.472
28.212,9.336
28.216,9.32
28.22,9.352
28.224,9.364
28.228,9.292
28.232,9.312
28.236,9.356
28.24,9.42
28.244,9.368
28.248,9.308
28.252,9.376
28.256,9.372
28.26,9.336
28.264,9.304
28.268,9.32
28.272,9.336
28.276,9.308
28.28,9.248
28.284,9.3
28.288,9.408
28.292,9.384
28.296,9.324
28.3,9.312
28.304,9.392
28.308,9.38
28.312,9.308
28.316,9.284
28.32,9.348
28.324,9.4
28.328,9.296
28.332,9.272
28.336,9.368
28.34,9.432
28.344,9.348
28.348,9.32
28.352,9.34
28.356,9.372
28.36,9.308
28.364,9.3
28.368,9.372
28.372,9.392
28.376,9.34
28.38,9.272
28.384,9.308
28.388,9.4
28.392,9.36
28.396,9.296
28.4,9.296
28.404,9.36
28.408,9.36
28.412,9.316
28.416,9.268
28.42,9.36
28.424,9.38
28.428,9.3
28.432,9.284
28.436,9.372
28.44,9.392
28.444,9.348
28.448,9.284
28.452,9.344
28.456,9.368
28.46,9.332
28.464,9.276
28.468,9.336
28.472,9.4
28.476,9.352
28.48,9.248
28.484,9.276
28.488,9.356
28.492,9.364
28.496,9.288
28.5,9.312
28.504,9.356
28.508,9.368
28.512,9.272
28.516,9.232
28.52,9.34
28.524,9.384
28.528,9.324
28.532,9.256
28.536,9.344
28.54,9.356
28.544,9.26
28.548,9.24
28.552,9.288
28.556,9.34
28.56,9.32
28.564,9.304
28.568,9.32
28.572,9.376
28.576,9.304
28.58,9.252
28.584,9.212
28.588,9.26
28.592,9.312
28.596,9.256
28.6,9.268
28.604,9.384
28.608,9.404
28.612,9.376
28.616,9.38
28.62,9.396
28.624,9.452
28.628,9.424
28.632,9.452
28.636,9.54
28.64,9.612
28.644,9.552
28.648,9.544
28.652,9.58
28.656,9.612
28.66,9.516
28.664,9.444
28.668,9.388
28.672,9.416
28.676,9.368
28.68,9.232
28.684,9.248
28.688,9.304
28.692,9.248
28.696,9.144
28.7,9.14
28.704,9.212
28.708,9.22
28.712,9.152
28.716,9.116
28.72,9.192
28.724,9.228
28.728,9.164
28.732,9.104
28.736,9.18
28.74,9.216
28.744,9.176
28.748,9.144
28.752,9.248
28.756,9.476
28.76,9.56
28.764,9.6
28.768,9.76
28.772,9.852
28.776,9.632
28.78,9.512
28.784,9.476
28.788,9.224
28.792,8.612
28.796,7.996
28.8,7.584
28.804,7.524
28.808,7.644
28.812,7.956
28.816,8.22
28.82,8.52
28.824,8.78
28.828,8.856
28.832,8.864
28.836,9.032
28.84,9.172
28.844,9.088
28.848,9.084
28.852,9.14
28.856,9.224
28.86,9.164
28.864,9.124
28.868,9.152
28.872,9.212
28.876,9.176
28.88,9.152
28.884,9.156
28.888,9.208
28.892,9.184
28.896,9.152
28.9,9.152
28.904,9.236
28.908,9.22
28.912,9.14
28.916,9.18
28.92,9.24
28.924,9.264
28.928,9.184
28.932,9.172
28.936,9.204
28.94,9.268
28.944,9.22
28.948,9.18
28.952,9.248
28.956,9.28
28.96,9.224
28.964,9.192
28.968,9.24
28.972,9.328
28.976,9.268
28.98,9.236
28.984,9.26
28.988,9.352
28.992,9.364
28.996,9.284
29,9.32
29.004,9.424
29.008,9.436
29.012,9.396
29.016,9.388
29.02,9.468
29.024,9.516
29.028,9.468
29.032,9.46
29.036,9.588
29.04,9.616
29.044,9.536
29.048,9.528
29.052,9.604
29.056,9.656
29.06,9.632
29.064,9.552
29.068,9.58
29.072,9.656
29.076,9.608
29.08,9.54
29.084,9.524
29.088,9.54
29.092,9.524
29.096,9.428
29.1,9.408
29.104,9.404
29.108,9.42
29.112,9.32
29.116,9.284
29.12,9.32
29.124,9.296
29.128,9.24
29.132,9.22
29.136,9.256
29.14,9.26
29.144,9.176
29.148,9.132
29.152,9.168
29.156,9.184
29.16,9.152
29.164,9.104
29.168,9.116
29.172,9.148
29.176,9.144
29.18,9.108
29.184,9.124
29.188,9.172
29.192,9.208
29.196,9.128
29.2,9.124
29.204,9.176
29.208,9.176
29.212,9.108
29.216,9.084
29.22,9.16
29.224,9.228
29.228,9.152
29.232,9.108
29.236,9.168
29.24,9.204
29.244,9.164
29.248,9.104
29.252,9.152
29.256,9.216
29.26,9.188
29.264,9.144
29.268,9.188
29.272,9.228
29.276,9.188
29.28,9.124
29.284,9.144
29.288,9.232
29.292,9.232
29.296,9.164
29.3,9.12
29.304,9.204
29.308,9.192
29.312,9.14
29.316,9.104
29.32,9.144
29.324,9.236
29.328,9.168
29.332,9.108
29.336,9.16
29.34,9.224
29.344,9.156
29.348,9.108
29.352,9.176
29.356,9.208
29.36,9.152
29.364,9.088
29.368,9.144
29.372,9.224
29.376,9.16
29.38,9.096
29.384,9.108
29.388,9.172
29.392,9.188
29.396,9.1
29.4,9.128
29.404,9.188
29.408,9.164
29.412,9.072
29.416,9.076
29.42,9.16
29.424,9.192
29.428,9.132
29.432,9.112
29.436,9.176
29.44,9.208
29.444,9.096
29.448,9.072
29.452,9.124
29.456,9.156
29.46,9.116
29.464,9.068
29.468,9.132
29.472,9.192
29.476,9.16
29.48,9.08
29.484,9.104
29.488,9.152
29.492,9.136
29.496,9.1
29.5,9.104
29.504,9.156
29.508,9.18
29.512,9.096
29.516,9.076
29.52,9.144
29.524,9.196
29.528,9.14
29.532,9.1
29.536,9.164
29.54,9.18
29.544,9.104
29.548,9.076
29.552,9.108
29.556,9.22
29.56,9.14
29.564,9.136
29.568,9.22
29.572,9.324
29.576,9.288
29.58,9.216
29.584,9.216
29.588,9.34
29.592,9.416
29.596,9.376
29.6,9.368
29.604,9.468
29.608,9.464
29.612,9.384
29.616,9.36
29.62,9.364
29.624,9.34
29.628,9.24
29.632,9.18
29.636,9.196
29.64,9.184
29.644,9.112
29.648,9.064
29.652,9.06
29.656,9.132
29.66,9.068
29.664,9.016
29.668,9.004
29.672,9.06
29.676,9.068
29.68,9.004
29.684,8.988
29.688,9.024
29.692,9.068
29.696,8.992
29.7,9.008
29.704,9.1
29.708,9.104
29.712,9.116
29.716,9.248
29.72,9.444
29.724,9.608
29.728,9.7
29.732,9.68
29.736,9.564
29.74,9.524
29.744,9.38
29.748,9.024
29.752,8.404
29.756,7.864
29.76,7.488
29.764,7.372
29.768,7.56
29.772,7.98
29.776,8.224
29.78,8.364
29.784,8.608
29.788,8.816
29.792,8.892
29.796,8.904
29.8,8.944
29.804,9.024
29.808,9.028
29.812,8.984
29.816,8.968
29.82,9.048
29.824,9.1
29.828,9.024
29.832,8.98
29.836,9.048
29.84,9.084
29.844,9.044
29.848,9.024
29.852,9.04
29.856,9.1
29.86,9.028
29.864,9.024
29.868,9.028
29.872,9.12
29.876,9.112
29.88,9.052
29.884,9.052
29.888,9.12
29.892,9.128
29.896,9.068
29.9,9.048
29.904,9.096
29.908,9.132
29.912,9.088
29.916,9.092
29.92,9.156
29.924,9.16
29.928,9.116
29.932,9.068
29.936,9.16
29.94,9.224
29.944,9.192
29.948,9.156
29.952,9.192
29.956,9.272
29.96,9.248
29.964,9.22
29.968,9.252
29.972,9.356
29.976,9.344
29.98,9.332
29.984,9.352
29.988,9.44
29.992,9.46
29.996,9.4
30,9.42
30.004,9.504
30.008,9.54
30.012,9.484
30.016,9.444
30.02,9.496
30.024,9.576
30.028,9.472
30.032,9.452
30.036,9.476
30.04,9.508
30.044,9.408
30.048,9.34
30.052,9.376
30.056,9.396
30.06,9.324
30.064,9.264
30.068,9.248
30.072,9.288
30.076,9.24
30.08,9.18
30.084,9.16
30.088,9.216
30.092,9.224
30.096,9.116
30.1,9.072
30.104,9.104
30.108,9.104
30.112,9.036
30.116,9.028
30.12,9.084
30.124,9.1
30.128,8.984
30.132,8.992
30.136,9.032
30.14,9.084
30.144,9.048
30.148,9.012
30.152,9.044
30.156,9.08
30.16,9.016
30.164,8.964
30.168,9.02
30.172,9.084
30.176,9.04
30.18,9
30.184,9
30.188,9.056
30.192,9.076
30.196,9.028
30.2,8.988
30.204,9.08
30.208,9.108
30.212,9.036
30.216,9.016
30.22,9.068
30.224,9.108
30.228,9.028
30.232,8.992
30.236,9.064
30.24,9.116
30.244,9.044
30.248,9.024
30.252,9.068
30.256,9.1
30.26,9.052
30.264,8.992
30.268,9.036
30.272,9.088
30.276,9.048
30.28,9.004
30.284,9.008
30.288,9.06
30.292,9.072
30.296,9.024
30.3,9
30.304,9.036
30.308,9.052
30.312,8.952
30.316,8.968
30.32,9.032
30.324,9.088
30.328,8.988
30.332,8.98
30.336,9
30.34,9.064
30.344,9.004
30.348,8.96
30.352,9.02
30.356,9.076
30.36,9.004
30.364,8.956
30.368,8.996
30.372,9.08
30.376,9.056
30.38,9
30.384,9.016
30.388,9.064
30.392,9.028
30.396,8.944
30.4,8.96
30.404,9.02
30.408,9.052
30.412,9
30.416,8.972
30.42,9.06
30.424,9.056
30.428,8.988
30.432,8.972
30.436,9.02
30.44,9.072
30.444,9
30.448,8.972
30.452,9.02
30.456,9.072
30.46,9.024
30.464,8.952
30.468,9
30.472,9.02
30.476,9.024
30.48,8.896
30.484,8.936
30.488,9.056
30.492,9.056
30.496,8.98
30.5,8.976
30.504,9.048
30.508,9.088
30.512,9.064
30.516,9.072
30.52,9.148
30.524,9.192
30.528,9.112
30.532,9.108
30.536,9.208
30.54,9.3
30.544,9.252
30.548,9.196
30.552,9.296
30.556,9.344
30.56,9.3
30.564,9.248
30.568,9.3
30.572,9.3
30.576,9.2
30.58,9.124
30.584,9.044
30.588,9.076
30.592,9.064
30.596,8.96
30.6,8.972
30.604,9.028
30.608,8.976
30.612,8.876
30.616,8.876
30.62,8.968
30.624,9.016
30.628,8.94
30.632,8.884
30.636,8.94
30.64,9.012
30.644,8.936
30.648,8.892
30.652,8.936
30.656,8.996
30.66,8.968
30.664,9.036
30.668,9.176
30.672,9.4
30.676,9.48
30.68,9.54
30.684,9.468
30.688,9.352
30.692,9.424
30.696,9.3
30.7,8.828
30.704,8.308
30.708,7.78
30.712,7.372
30.716,7.292
30.72,7.548
30.724,7.912
30.728,8.1
30.732,8.348
30.736,8.628
30.74,8.736
30.744,8.732
30.748,8.78
30.752,8.828
30.756,8.924
30.76,8.904
30.764,8.864
30.768,8.92
30.772,8.976
30.776,8.964
30.78,8.884
30.784,8.908
30.788,8.992
30.792,8.988
30.796,8.924
30.8,8.928
30.804,9.024
30.808,9.036
30.812,8.94
30.816,8.92
30.82,8.976
30.824,9.044
30.828,8.972
30.832,8.96
30.836,9.012
30.84,9.052
30.844,9.012
30.848,8.952
30.852,8.988
30.856,9.056
30.86,9.008
30.864,8.98
30.868,9.02
30.872,9.076
30.876,9.08
30.88,9.036
30.884,9.024
30.888,9.084
30.892,9.128
30.896,9.084
30.9,9.076
30.904,9.156
30.908,9.224
30.912,9.172
30.916,9.184
30.92,9.22
30.924,9.252
30.928,9.164
30.932,9.204
30.936,9.308
30.94,9.372
30.944,9.344
30.948,9.324
30.952,9.384
30.956,9.408
30.96,9.396
30.964,9.388
30.968,9.428
30.972,9.508
30.976,9.468
30.98,9.416
30.984,9.392
30.988,9.42
30.992,9.42
30.996,9.316
31,9.3
31.004,9.344
31.008,9.36
31.012,9.216
31.016,9.168
31.02,9.204
31.024,9.22
31.028,9.12
31.032,9.044
31.036,9.1
31.04,9.104
31.044,9.036
31.048,8.996
31.052,8.996
31.056,9.036
31.06,8.952
31.064,8.932
31.068,8.956
31.072,9.02
31.076,8.988
31.08,8.916
31.084,8.896
31.088,8.972
31.092,8.984
31.096,8.864
31.1,8.864
31.104,8.956
31.108,8.996
31.112,8.916
31.116,8.868
31.12,8.956
31.124,9.016
31.128,8.944
31.132,8.896
31.136,8.948
31.14,9.012
31.144,8.956
31.148,8.9
31.152,8.948
31.156,8.996
31.16,8.976
31.164,8.92
31.168,8.924
31.172,8.996
31.176,8.952
31.18,8.908
31.184,8.912
31.188,8.984
31.192,9.016
31.196,8.912
31.2,8.908
31.204,8.992
31.208,9.008
31.212,8.9
31.216,8.86
31.22,8.98
31.224,9.008
31.228,8.888
31.232,8.872
31.236,8.924
31.24,8.972
31.244,8.928
31.248,8.876
31.252,8.9
31.256,8.972
31.26,8.932
31.264,8.848
31.268,8.888
31.272,8.928
31.276,8.908
31.28,8.872
31.284,8.876
31.288,8.956
31.292,8.944
31.296,8.86
31.3,8.852
31.304,8.912
31.308,8.952
31.312,8.868
31.316,8.864
31.32,8.932
31.324,8.948
31.328,8.872
31.332,8.828
31.336,8.876
31.34,8.928
31.344,8.88
31.348,8.836
31.352,8.904
31.356,8.968
31.36,8.9
31.364,8.792
31.368,8.816
31.372,8.916
31.376,8.896
31.38,8.82
31.384,8.824
31.388,8.924
31.392,8.928
31.396,8.832
31.4,8.848
31.404,8.88
31.408,8.908
31.412,8.824
31.416,8.844
31.42,8.872
31.424,8.924
31.428,8.852
31.432,8.792
31.436,8.868
31.44,8.912
31.444,8.864
31.448,8.808
31.452,8.88
31.456,8.92
31.46,8.884
31.464,8.86
31.468,8.892
31.472,9.012
31.476,9.004
31.48,8.928
31.484,8.928
31.488,9.032
31.492,9.092
31.496,9.08
31.5,9.076
31.504,9.16
31.508,9.18
31.512,9.084
31.516,9.056
31.52,9.108
31.524,9.148
31.528,9.036
31.532,8.952
31.536,8.972
31.54,8.956
31.544,8.848
31.548,8.768
31.552,8.82
31.556,8.848
31.56,8.824
31.564,8.748
31.568,8.78
31.572,8.82
31.576,8.8
31.58,8.736
31.584,8.748
31.588,8.8
31.592,8.84
31.596,8.744
31.6,8.724
31.604,8.792
31.608,8.816
31.612,8.748
31.616,8.8
31.62,9.036
31.624,9.24
31.628,9.316
31.632,9.452
31.636,9.504
31.64,9.396
31.644,9.312
31.648,9.264
31.652,8.964
31.656,8.38
31.66,7.768
31.664,7.252
31.668,7.172
31.672,7.392
31.676,7.68
31.68,7.884
31.684,8.112
31.688,8.396
31.692,8.592
31.696,8.556
31.7,8.632
31.704,8.728
31.708,8.764
31.712,8.704
31.716,8.688
31.72,8.772
31.724,8.824
31.728,8.772
31.732,8.728
31.736,8.756
31.74,8.86
31.744,8.8
31.748,8.752
31.752,8.804
31.756,8.836
31.76,8.804
31.764,8.784
31.768,8.784
31.772,8.848
31.776,8.828
31.78,8.788
31.784,8.772
31.788,8.844
31.792,8.84
31.796,8.804
31.8,8.792
31.804,8.852
31.808,8.904
31.812,8.828
31.816,8.772
31.82,8.848
31.824,8.884
31.828,8.844
31.832,8.8
31.836,8.912
31.84,8.98
31.844,8.888
31.848,8.84
31.852,8.908
31.856,8.972
31.86,8.96
31.864,8.952
31.868,8.968
31.872,9.06
31.876,9.06
31.88,9.012
31.884,9.02
31.888,9.144
31.892,9.184
31.896,9.12
31.9,9.12
31.904,9.228
31.908,9.272
31.912,9.216
31.916,9.192
31.92,9.272
31.924,9.3
31.928,9.212
31.932,9.184
31.936,9.248
31.94,9.28
31.944,9.184
31.948,9.116
31.952,9.156
31.956,9.184
31.96,9.092
31.964,9.02
31.968,9.02
31.972,9.064
31.976,9.032
31.98,8.896
31.984,8.92
31.988,8.964
31.992,8.968
31.996,8.848
32,8.796
32.004,8.868
32.008,8.892
32.012,8.792
32.016,8.76
32.02,8.784
32.024,8.852
32.028,8.756
32.032,8.712
32.036,8.796
32.04,8.82
32.044,8.784
32.048,8.728
32.052,8.74
32.056,8.808
32.06,8.748
32.064,8.68
32.068,8.724
32.072,8.768
32.076,8.788
32.08,8.72
32.084,8.756
32.088,8.796
32.092,8.816
32.096,8.732
32.1,8.7
32.104,8.772
32.108,8.832
32.112,8.732
32.116,8.712
32.12,8.764
32.124,8.816
32.128,8.736
32.132,8.716
32.136,8.784
32.14,8.856
32.144,8.776
32.148,8.74
32.152,8.752
32.156,8.804
32.16,8.776
32.164,8.728
32.168,8.732
32.172,8.824
32.176,8.812
32.18,8.732
32.184,8.712
32.188,8.788
32.192,8.828
32.196,8.744
32.2,8.684
32.204,8.748
32.208,8.812
32.212,8.752
32.216,8.704
32.22,8.768
32.224,8.82
32.228,8.732
32.232,8.696
32.236,8.724
32.24,8.816
32.244,8.776
32.248,8.716
32.252,8.72
32.256,8.768
32.26,8.776
32.264,8.696
32.268,8.724
32.272,8.776
32.276,8.788
32.28,8.716
32.284,8.708
32.288,8.764
32.292,8.828
32.296,8.716
32.3,8.712
32.304,8.792
32.308,8.808
32.312,8.736
32.316,8.676
32.32,8.736
32.324,8.812
32.328,8.712
32.332,8.652
32.336,8.728
32.34,8.776
32.344,8.728
32.348,8.676
32.352,8.728
32.356,8.8
32.36,8.764
32.364,8.672
32.368,8.696
32.372,8.776
32.376,8.772
32.38,8.716
32.384,8.696
32.388,8.784
32.392,8.788
32.396,8.696
32.4,8.704
32.404,8.804
32.408,8.872
32.412,8.82
32.416,8.796
32.42,8.892
32.424,8.94
32.428,8.832
32.432,8.808
32.436,8.932
32.44,9.036
32.444,9.012
32.448,8.956
32.452,8.996
32.456,9.028
32.46,8.984
32.464,8.916
32.468,8.936
32.472,8.972
32.476,9.004
32.48,8.856
32.484,8.784
32.488,8.824
32.492,8.78
32.496,8.68
32.5,8.636
32.504,8.684
32.508,8.744
32.512,8.648
32.516,8.604
32.52,8.688
32.524,8.716
32.528,8.628
32.532,8.592
32.536,8.664
32.54,8.74
32.544,8.676
32.548,8.608
32.552,8.652
32.556,8.768
32.56,8.82
32.564,8.928
32.568,9.08
32.572,9.288
32.576,9.452
32.58,9.364
32.584,9.152
32.588,9.192
32.592,9.092
32.596,8.624
32.6,7.912
32.604,7.452
32.608,7.164
32.612,7.052
32.616,7.196
32.62,7.624
32.624,7.944
32.628,8.06
32.632,8.236
32.636,8.436
32.64,8.576
32.644,8.58
32.648,8.548
32.652,8.628
32.656,8.692
32.66,8.668
32.664,8.612
32.668,8.632
32.672,8.688
32.676,8.7
32.68,8.656
32.684,8.632
32.688,8.72
32.692,8.74
32.696,8.68
32.7,8.632
32.704,8.712
32.708,8.744
32.712,8.688
32.716,8.648
32.72,8.716
32.724,8.796
32.728,8.708
32.732,8.616
32.736,8.724
32.74,8.78
32.744,8.74
32.748,8.696
32.752,8.744
32.756,8.82
32.76,8.776
32.764,8.712
32.768,8.744
32.772,8.836
32.776,8.828
32.78,8.752
32.784,8.784
32.788,8.86
32.792,8.912
32.796,8.864
32.8,8.852
32.804,8.92
32.808,8.976
32.812,8.904
32.816,8.892
32.82,9.008
32.824,9.064
32.828,8.996
32.832,8.972
32.836,9.06
32.84,9.156
32.844,9.104
32.848,9.072
32.852,9.152
32.856,9.22
32.86,9.196
32.864,9.12
32.868,9.14
32.872,9.244
32.876,9.204
32.88,9.132
32.884,9.096
32.888,9.156
32.892,9.16
32.896,9.036
32.9,8.984
32.904,9.028
32.908,9.008
32.912,8.932
32.916,8.856
32.92,8.92
32.924,8.956
32.928,8.84
32.932,8.792
32.936,8.84
32.94,8.892
32.944,8.772
32.948,8.712
32.952,8.74
32.956,8.788
32.96,8.764
32.964,8.708
32.968,8.712
32.972,8.768
32.976,8.724
32.98,8.64
32.984,8.64
32.988,8.712
32.992,8.724
32.996,8.652
33,8.648
33.004,8.704
33.008,8.744
33.012,8.668
33.016,8.616
33.02,8.676
33.024,8.752
33.028,8.676
33.032,8.624
33.036,8.692
33.04,8.748
33.044,8.708
33.048,8.676
33.052,8.688
33.056,8.756
33.06,8.756
33.064,8.676
33.068,8.672
33.072,8.768
33.076,8.768
33.08,8.668
33.084,8.68
33.088,8.748
33.092,8.796
33.096,8.708
33.1,8.628
33.104,8.732
33.108,8.772
33.112,8.708
33.116,8.652
33.12,8.724
33.124,8.768
33.128,8.736
33.132,8.652
33.136,8.712
33.14,8.768
33.144,8.728
33.148,8.668
33.152,8.72
33.156,8.756
33.16,8.74
33.164,8.668
33.168,8.636
33.172,8.748
33.176,8.748
33.18,8.664
33.184,8.616
33.188,8.732
33.192,8.788
33.196,8.68
33.2,8.64
33.204,8.724
33.208,8.76
33.212,8.652
33.216,8.62
33.22,8.72
33.224,8.748
33.228,8.696
33.232,8.624
33.236,8.712
33.24,8.748
33.244,8.68
33.248,8.672
33.252,8.696
33.256,8.764
33.26,8.716
33.264,8.616
33.268,8.648
33.272,8.724
33.276,8.744
33.28,8.66
33.284,8.64
33.288,8.716
33.292,8.74
33.296,8.636
33.3,8.632
33.304,8.732
33.308,8.764
33.312,8.664
33.316,8.636
33.32,8.712
33.324,8.748
33.328,8.68
33.332,8.608
33.336,8.668
33.34,8.756
33.344,8.712
33.348,8.656
33.352,8.692
33.356,8.824
33.36,8.804
33.364,8.76
33.368,8.764
33.372,8.856
33.376,8.84
33.38,8.804
33.384,8.82
33.388,8.98
33.392,9.048
33.396,8.944
33.4,8.912
33.404,8.976
33.408,8.976
33.412,8.868
33.416,8.84
33.42,8.9
33.424,8.96
33.428,8.836
33.432,8.728
33.436,8.72
33.44,8.736
33.444,8.688
33.448,8.628
33.452,8.64
33.456,8.668
33.46,8.608
33.464,8.528
33.468,8.592
33.472,8.656
33.476,8.64
33.48,8.58
33.484,8.572
33.488,8.664
33.492,8.684
33.496,8.6
33.5,8.56
33.504,8.64
33.508,8.808
33.512,8.888
33.516,8.976
33.52,9.18
33.524,9.364
33.528,9.252
33.532,8.984
33.536,9.056
33.54,9.02
33.544,8.576
33.548,7.936
33.552,7.428
33.556,7.16
33.56,7.056
33.564,7.22
33.568,7.528
33.572,7.856
33.576,8.076
33.58,8.18
33.584,8.296
33.588,8.448
33.592,8.576
33.596,8.528
33.6,8.504
33.604,8.54
33.608,8.636
33.612,8.604
33.616,8.556
33.62,8.616
33.624,8.692
33.628,8.64
33.632,8.596
33.636,8.68
33.64,8.732
33.644,8.656
33.648,8.596
33.652,8.62
33.656,8.732
33.66,8.696
33.664,8.64
33.668,8.664
33.672,8.72
33.676,8.716
33.68,8.656
33.684,8.636
33.688,8.744
33.692,8.752
33.696,8.652
33.7,8.656
33.704,8.728
33.708,8.768
33.712,8.696
33.716,8.636
33.72,8.776
33.724,8.848
33.728,8.784
33.732,8.704
33.736,8.776
33.74,8.84
33.744,8.812
33.748,8.78
33.752,8.82
33.756,8.912
33.76,8.916
33.764,8.86
33.768,8.888
33.772,8.984
33.776,9.016
33.78,8.948
33.784,8.976
33.788,9.052
33.792,9.128
33.796,9.084
33.8,9.068
33.804,9.124
33.808,9.176
33.812,9.12
33.816,9.08
33.82,9.14
33.824,9.208
33.828,9.112
33.832,9.052
33.836,9.128
33.84,9.148
33.844,9.064
33.848,8.98
33.852,8.968
33.856,9
33.86,8.988
33.864,8.904
33.868,8.864
33.872,8.868
33.876,8.868
33.88,8.752
33.884,8.712
33.888,8.76
33.892,8.784
33.896,8.704
33.9,8.652
33.904,8.704
33.908,8.756
33.912,8.668
33.916,8.596
33.92,8.66
33.924,8.696
33.928,8.608
33.932,8.592
33.936,8.64
33.94,8.672
33.944,8.616
33.948,8.56
33.952,8.616
33.956,8.688
33.96,8.64
33.964,8.58
33.968,8.584
33.972,8.688
33.976,8.684
33.98,8.624
33.984,8.568
33.988,8.668
33.992,8.72
33.996,8.64
34,8.612
34.004,8.672
34.008,8.716
34.012,8.612
34.016,8.592
34.02,8.672
34.024,8.728
34.028,8.672
34.032,8.632
34.036,8.688
34.04,8.724
34.044,8.716
34.048,8.62
34.052,8.64
34.056,8.7
34.06,8.7
34.064,8.64
34.068,8.656
34.072,8.728
34.076,8.728
34.08,8.632
34.084,8.612
34.088,8.66
34.092,8.72
34.096,8.64
34.1,8.608
34.104,8.7
34.108,8.736
34.112,8.64
34.116,8.584
34.12,8.66
34.124,8.728
34.128,8.672
34.132,8.62
34.136,8.66
34.14,8.708
34.144,8.676
34.148,8.604
34.152,8.644
34.156,8.704
34.16,8.692
34.164,8.636
34.168,8.608
34.172,8.716
34.176,8.7
34.18,8.62
34.184,8.6
34.188,8.692
34.192,8.736
34.196,8.656
34.2,8.628
34.204,8.7
34.208,8.736
34.212,8.672
34.216,8.608
34.22,8.66
34.224,8.72
34.228,8.672
34.232,8.604
34.236,8.656
34.24,8.748
34.244,8.66
34.248,8.616
34.252,8.648
34.256,8.684
34.26,8.696
34.264,8.624
34.268,8.628
34.272,8.692
34.276,8.716
34.28,8.624
34.284,8.592
34.288,8.708
34.292,8.76
34.296,8.704
34.3,8.668
34.304,8.776
34.308,8.844
34.312,8.792
34.316,8.756
34.32,8.812
34.324,8.88
34.328,8.836
34.332,8.824
34.336,8.916
34.34,9.032
34.344,8.964
34.348,8.916
34.352,8.912
34.356,8.976
34.36,8.92
34.364,8.864
34.368,8.872
34.372,8.908
34.376,8.876
34.38,8.756
34.384,8.684
34.388,8.72
34.392,8.716
34.396,8.616
34.4,8.572
34.404,8.652
34.408,8.688
34.412,8.6
34.416,8.528
34.42,8.616
34.424,8.628
34.428,8.592
34.432,8.52
34.436,8.604
34.44,8.692
34.444,8.656
34.448,8.564
34.452,8.628
34.456,8.836
34.46,8.992
34.464,9.024
34.468,9.204
34.472,9.448
34.476,9.412
34.48,9.132
34.484,9.156
34.488,9.068
34.492,8.612
34.496,7.908
34.5,7.316
34.504,7.104
34.508,7.156
34.512,7.3
34.516,7.568
34.52,7.888
34.524,8.144
34.528,8.276
34.532,8.36
34.536,8.456
34.54,8.576
34.544,8.592
34.548,8.532
34.552,8.624
34.556,8.692
34.56,8.66
34.564,8.592
34.568,8.58
34.572,8.652
34.576,8.684
34.58,8.628
34.584,8.62
34.588,8.712
34.592,8.724
34.596,8.652
34.6,8.612
34.604,8.688
34.608,8.724
34.612,8.652
34.616,8.636
34.62,8.7
34.624,8.732
34.628,8.688
34.632,8.644
34.636,8.692
34.64,8.732
34.644,8.708
34.648,8.676
34.652,8.696
34.656,8.772
34.66,8.768
34.664,8.708
34.668,8.704
34.672,8.8
34.676,8.804
34.68,8.76
34.684,8.74
34.688,8.828
34.692,8.896
34.696,8.812
34.7,8.784
34.704,8.888
34.708,8.936
34.712,8.9
34.716,8.872
34.72,8.996
34.724,9.06
34.728,9
34.732,8.976
34.736,9.024
34.74,9.136
34.744,9.128
34.748,9.084
34.752,9.112
34.756,9.196
34.76,9.172
34.764,9.12
34.768,9.1
34.772,9.18
34.776,9.184
34.78,9.092
34.784,9.052
34.788,9.088
34.792,9.1
34.796,8.976
34.8,8.908
34.804,8.96
34.808,8.972
34.812,8.876
34.816,8.824
34.82,8.84
34.824,8.904
34.828,8.824
34.832,8.728
34.836,8.768
34.84,8.8
34.844,8.74
34.848,8.68
34.852,8.708
34.856,8.764
34.86,8.732
34.864,8.66
34.868,8.644
34.872,8.708
34.876,8.72
34.88,8.624
34.884,8.604
34.888,8.716
34.892,8.76
34.896,8.636
34.9,8.612
34.904,8.672
34.908,8.704
34.912,8.628
34.916,8.584
34.92,8.696
34.924,8.732
34.928,8.676
34.932,8.604
34.936,8.652
34.94,8.736
34.944,8.696
34.948,8.628
34.952,8.668
34.956,8.724
34.96,8.732
34.964,8.664
34.968,8.656
34.972,8.712
34.976,8.732
34.98,8.64
34.984,8.6
34.988,8.708
34.992,8.772
34.996,8.672
35,8.624
35.004,8.688
35.008,8.736
35.012,8.656
35.016,8.656
35.02,8.708
35.024,8.776
35.028,8.68
35.032,8.644
35.036,8.672
35.04,8.724
35.044,8.7
35.048,8.652
35.052,8.664
35.056,8.736
35.06,8.704
35.064,8.66
35.068,8.664
35.072,8.744
35.076,8.724
35.08,8.652
35.084,8.62
35.088,8.704
35.092,8.72
35.096,8.656
35.1,8.624
35.104,8.7
35.108,8.744
35.112,8.66
35.116,8.6
35.12,8.668
35.124,8.728
35.128,8.668
35.132,8.612
35.136,8.672
35.14,8.712
35.144,8.684
35.148,8.628
35.152,8.64
35.156,8.716
35.16,8.704
35.164,8.632
35.168,8.62
35.172,8.688
35.176,8.716
35.18,8.62
35.184,8.616
35.188,8.7
35.192,8.732
35.196,8.64
35.2,8.616
35.204,8.676
35.208,8.72
35.212,8.648
35.216,8.6
35.22,8.676
35.224,8.712
35.228,8.668
35.232,8.596
35.236,8.668
35.24,8.724
35.244,8.716
35.248,8.672
35.252,8.74
35.256,8.804
35.26,8.804
35.264,8.732
35.268,8.74
35.272,8.812
35.276,8.88
35.28,8.864
35.284,8.888
35.288,8.944
35.292,8.972
35.296,8.896
35.3,8.868
35.304,8.876
35.308,8.96
35.312,8.86
35.316,8.808
35.32,8.86
35.324,8.828
35.328,8.708
35.332,8.608
35.336,8.632
35.34,8.676
35.344,8.648
35.348,8.552
35.352,8.536
35.356,8.616
35.36,8.592
35.364,8.552
35.368,8.548
35.372,8.6
35.376,8.624
35.38,8.52
35.384,8.484
35.388,8.6
35.392,8.656
35.396,8.548
35.4,8.564
35.404,8.768
35.408,9.008
35.412,9.088
35.416,9.172
35.42,9.36
35.424,9.288
35.428,9.08
35.432,8.984
35.436,8.876
35.44,8.404
35.444,7.732
35.448,7.148
35.452,6.964
35.456,7.044
35.46,7.304
35.464,7.556
35.468,7.8
35.472,8.1
35.476,8.32
35.48,8.34
35.484,8.4
35.488,8.496
35.492,8.584
35.496,8.524
35.5,8.512
35.504,8.588
35.508,8.668
35.512,8.572
35.516,8.504
35.52,8.596
35.524,8.652
35.528,8.588
35.532,8.54
35.536,8.588
35.54,8.652
35.544,8.628
35.548,8.56
35.552,8.6
35.556,8.66
35.56,8.612
35.564,8.54
35.568,8.568
35.572,8.608
35.576,8.672
35.58,8.604
35.584,8.552
35.588,8.656
35.592,8.676
35.596,8.632
35.6,8.6
35.604,8.664
35.608,8.72
35.612,8.672
35.616,8.604
35.62,8.708
35.624,8.74
35.628,8.712
35.632,8.672
35.636,8.728
35.64,8.788
35.644,8.804
35.648,8.732
35.652,8.768
35.656,8.884
35.66,8.864
35.664,8.816
35.668,8.844
35.672,8.928
35.676,9
35.68,8.952
35.684,8.928
35.688,9.016
35.692,9.06
35.696,9.036
35.7,9.004
35.704,9.092
35.708,9.128
35.712,9.048
35.716,9.02
35.72,9.088
35.724,9.12
35.728,9.036
35.732,8.952
35.736,8.968
35.74,8.984
35.744,8.924
35.748,8.856
35.752,8.86
35.756,8.896
35.76,8.84
35.764,8.74
35.768,8.72
35.772,8.752
35.776,8.744
35.78,8.66
35.784,8.644
35.788,8.696
35.792,8.712
35.796,8.624
35.8,8.544
35.804,8.616
35.808,8.648
35.812,8.572
35.816,8.54
35.82,8.604
35.824,8.652
35.828,8.572
35.832,8.5
35.836,8.556
35.84,8.628
35.844,8.604
35.848,8.512
35.852,8.528
35.856,8.608
35.86,8.596
35.864,8.484
35.868,8.48
35.872,8.584
35.876,8.624
35.88,8.536
35.884,8.524
35.888,8.604
35.892,8.628
35.896,8.528
35.9,8.536
35.904,8.616
35.908,8.652
35.912,8.584
35.916,8.54
35.92,8.608
35.924,8.66
35.928,8.592
35.932,8.532
35.936,8.588
35.94,8.64
35.944,8.612
35.948,8.552
35.952,8.544
35.956,8.636
35.96,8.64
35.964,8.556
35.968,8.572
35.972,8.62
35.976,8.632
35.98,8.556
35.984,8.52
35.988,8.608
35.992,8.652
35.996,8.548
36,8.556
36.004,8.612
36.008,8.648
36.012,8.544
36.016,8.492
36.02,8.572
36.024,8.644
36.028,8.592
36.032,8.528
36.036,8.572
36.04,8.632
36.044,8.568
36.048,8.5
36.052,8.548
36.056,8.62
36.06,8.596
36.064,8.532
36.068,8.528
36.072,8.608
36.076,8.62
36.08,8.536
36.084,8.512
36.088,8.592
36.092,8.648
36.096,8.564
36.1,8.496
36.104,8.568
36.108,8.604
36.112,8.552
36.116,8.48
36.12,8.556
36.124,8.624
36.128,8.6
36.132,8.5
36.136,8.536
36.14,8.592
36.144,8.572
36.148,8.532
36.152,8.536
36.156,8.624
36.16,8.628
36.164,8.532
36.168,8.528
36.172,8.576
36.176,8.628
36.18,8.536
36.184,8.5
36.188,8.588
36.192,8.624
36.196,8.544
36.2,8.516
36.204,8.576
36.208,8.616
36.212,8.516
36.216,8.508
36.22,8.612
36.224,8.712
36.228,8.68
36.232,8.652
36.236,8.664
36.24,8.752
36.244,8.66
36.248,8.616
36.252,8.708
36.256,8.84
36.26,8.876
36.264,8.784
36.268,8.776
36.272,8.852
36.276,8.864
36.28,8.756
36.284,8.716
36.288,8.78
36.292,8.836
36.296,8.696
36.3,8.576
36.304,8.6
36.308,8.616
36.312,8.516
36.316,8.448
36.32,8.484
36.324,8.532
36.328,8.484
36.332,8.416
36.336,8.468
36.34,8.516
36.344,8.468
36.348,8.408
36.352,8.424
36.356,8.508
36.36,8.512
36.364,8.428
36.368,8.432
36.372,8.512
36.376,8.624
36.38,8.708
36.384,8.792
36.388,9.004
36.392,9.192
36.396,9.144
36.4,8.932
36.404,8.904
36.408,8.892
36.412,8.528
36.416,7.844
36.42,7.36
36.424,7.016
36.428,6.836
36.432,6.876
36.436,7.272
36.44,7.604
36.444,7.8
36.448,7.944
36.452,8.144
36.456,8.304
36.46,8.344
36.464,8.332
36.468,8.356
36.472,8.472
36.476,8.468
36.48,8.388
36.484,8.368
36.488,8.452
36.492,8.516
36.496,8.44
36.5,8.388
36.504,8.488
36.508,8.548
36.512,8.468
36.516,8.42
36.52,8.48
36.524,8.568
36.528,8.484
36.532,8.436
36.536,8.456
36.54,8.524
36.544,8.52
36.548,8.436
36.552,8.476
36.556,8.572
36.56,8.544
36.564,8.504
36.568,8.484
36.572,8.572
36.576,8.58
36.58,8.508
36.584,8.496
36.588,8.556
36.592,8.628
36.596,8.532
36.6,8.508
36.604,8.6
36.608,8.676
36.612,8.624
36.616,8.576
36.62,8.616
36.624,8.732
36.628,8.696
36.632,8.66
36.636,8.724
36.64,8.808
36.644,8.812
36.648,8.768
36.652,8.78
36.656,8.888
36.66,8.928
36.664,8.86
36.668,8.864
36.672,8.94
36.676,8.984
36.68,8.924
36.684,8.904
36.688,8.968
36.692,9
36.696,8.916
36.7,8.876
36.704,8.94
36.708,8.968
36.712,8.848
36.716,8.76
36.72,8.816
36.724,8.844
36.728,8.764
36.732,8.668
36.736,8.688
36.74,8.724
36.744,8.656
36.748,8.572
36.752,8.588
36.756,8.628
36.76,8.6
36.764,8.508
36.768,8.48
36.772,8.58
36.776,8.56
36.78,8.476
36.784,8.448
36.788,8.492
36.792,8.564
36.796,8.464
36.8,8.42
36.804,8.496
36.808,8.52
36.812,8.456
36.816,8.412
36.82,8.484
36.824,8.552
36.828,8.48
36.832,8.432
36.836,8.468
36.84,8.5
36.844,8.484
36.848,8.444
36.852,8.456
36.856,8.484
36.86,8.508
36.864,8.424
36.868,8.42
36.872,8.496
36.876,8.552
36.88,8.468
36.884,8.428
36.888,8.524
36.892,8.556
36.896,8.44
36.9,8.432
36.904,8.512
36.908,8.556
36.912,8.508
36.916,8.448
36.92,8.492
36.924,8.556
36.928,8.5
36.932,8.428
36.936,8.472
36.94,8.52
36.944,8.504
36.948,8.456
36.952,8.472
36.956,8.516
36.96,8.528
36.964,8.44
36.968,8.432
36.972,8.516
36.976,8.552
36.98,8.452
36.984,8.408
36.988,8.516
36.992,8.548
36.996,8.452
37,8.416
37.004,8.52
37.008,8.528
37.012,8.444
37.016,8.424
37.02,8.492
37.024,8.556
37.028,8.496
37.032,8.42
37.036,8.46
37.04,8.488
37.044,8.48
37.048,8.428
37.052,8.452
37.056,8.524
37.06,8.548
37.064,8.432
37.068,8.408
37.072,8.496
37.076,8.532
37.08,8.428
37.084,8.4
37.088,8.512
37.092,8.528
37.096,8.444
37.1,8.432
37.104,8.5
37.108,8.524
37.112,8.444
37.116,8.408
37.12,8.5
37.124,8.54
37.128,8.476
37.132,8.408
37.136,8.44
37.14,8.512
37.144,8.516
37.148,8.444
37.152,8.448
37.156,8.484
37.16,8.508
37.164,8.432
37.168,8.392
37.172,8.484
37.176,8.528
37.18,8.444
37.184,8.392
37.188,8.528
37.192,8.612
37.196,8.532
37.2,8.488
37.204,8.612
37.208,8.656
37.212,8.576
37.216,8.476
37.22,8.592
37.224,8.724
37.228,8.74
37.232,8.676
37.236,8.7
37.24,8.76
37.244,8.696
37.248,8.628
37.252,8.664
37.256,8.724
37.26,8.684
37.264,8.6
37.268,8.532
37.272,8.58
37.276,8.54
37.28,8.416
37.284,8.392
37.288,8.448
37.292,8.476
37.296,8.368
37.3,8.368
37.304,8.368
37.308,8.404
37.312,8.336
37.316,8.312
37.32,8.388
37.324,8.464
37.328,8.396
37.332,8.336
37.336,8.368
37.34,8.42
37.344,8.44
37.348,8.52
37.352,8.692
37.356,8.904
37.36,9.016
37.364,9.1
37.368,8.98
37.372,8.92
37.376,8.956
37.38,8.696
37.384,8.136
37.388,7.656
37.392,7.172
37.396,6.828
37.4,6.784
37.404,7.064
37.408,7.42
37.412,7.6
37.416,7.772
37.42,8.032
37.424,8.208
37.428,8.252
37.432,8.26
37.436,8.324
37.44,8.38
37.444,8.38
37.448,8.332
37.452,8.344
37.456,8.424
37.46,8.436
37.464,8.368
37.468,8.372
37.472,8.468
37.476,8.488
37.48,8.436
37.484,8.4
37.488,8.468
37.492,8.524
37.496,8.432
37.5,8.36
37.504,8.44
37.508,8.516
37.512,8.464
37.516,8.392
37.52,8.456
37.524,8.516
37.528,8.484
37.532,8.416
37.536,8.456
37.54,8.524
37.544,8.5
37.548,8.428
37.552,8.444
37.556,8.552
37.56,8.56
37.564,8.508
37.568,8.472
37.572,8.572
37.576,8.62
37.58,8.532
37.584,8.504
37.588,8.608
37.592,8.696
37.596,8.656
37.6,8.6
37.604,8.64
37.608,8.756
37.612,8.732
37.616,8.668
37.62,8.732
37.624,8.844
37.628,8.804
37.632,8.784
37.636,8.836
37.64,8.92
37.644,8.944
37.648,8.86
37.652,8.848
37.656,8.944
37.66,8.972
37.664,8.868
37.668,8.832
37.672,8.908
37.676,8.94
37.68,8.852
37.684,8.788
37.688,8.828
37.692,8.828
37.696,8.704
37.7,8.616
37.704,8.684
37.708,8.732
37.712,8.644
37.716,8.58
37.72,8.56
37.724,8.588
37.728,8.512
37.732,8.452
37.736,8.468
37.74,8.548
37.744,8.488
37.748,8.424
37.752,8.404
37.756,8.516
37.76,8.48
37.764,8.396
37.768,8.396
37.772,8.432
37.776,8.464
37.78,8.412
37.784,8.392
37.788,8.444
37.792,8.468
37.796,8.388
37.8,8.368
37.804,8.404
37.808,8.46
37.812,8.44
37.816,8.372
37.82,8.44
37.824,8.452
37.828,8.404
37.832,8.36
37.836,8.4
37.84,8.476
37.844,8.48
37.848,8.416
37.852,8.424
37.856,8.464
37.86,8.464
37.864,8.4
37.868,8.384
37.872,8.476
37.876,8.524
37.88,8.42
37.884,8.384
37.888,8.476
37.892,8.528
37.896,8.428
37.9,8.372
37.904,8.44
37.908,8.508
37.912,8.456
37.916,8.364
37.92,8.468
37.924,8.516
37.928,8.496
37.932,8.388
37.936,8.42
37.94,8.5
37.944,8.476
37.948,8.424
37.952,8.404
37.956,8.504
37.96,8.468
37.964,8.384
37.968,8.408
37.972,8.5
37.976,8.548
37.98,8.46
37.984,8.388
37.988,8.464
37.992,8.496
37.996,8.424
38,8.392
38.004,8.48
38.008,8.544
38.012,8.496
38.016,8.404
38.02,8.416
38.024,8.48
38.028,8.448
38.032,8.38
38.036,8.444
38.04,8.456
38.044,8.436
38.048,8.412
38.052,8.404
38.056,8.464
38.06,8.5
38.064,8.376
38.068,8.348
38.072,8.412
38.076,8.468
38.08,8.432
38.084,8.396
38.088,8.468
38.092,8.504
38.096,8.42
38.1,8.4
38.104,8.46
38.108,8.508
38.112,8.428
38.116,8.368
38.12,8.444
38.124,8.5
38.128,8.396
38.132,8.368
38.136,8.456
38.14,8.54
38.144,8.544
38.148,8.476
38.152,8.516
38.156,8.596
38.16,8.668
38.164,8.556
38.168,8.524
38.172,8.612
38.176,8.688
38.18,8.66
38.184,8.688
38.188,8.764
38.192,8.812
38.196,8.728
38.2,8.66
38.204,8.668
38.208,8.748
38.212,8.672
38.216,8.604
38.22,8.624
38.224,8.64
38.228,8.58
38.232,8.464
38.236,8.424
38.24,8.46
38.244,8.388
38.248,8.348
38.252,8.372
38.256,8.436
38.26,8.432
38.264,8.34
38.268,8.328
38.272,8.404
38.276,8.428
38.28,8.34
38.284,8.284
38.288,8.388
38.292,8.468
38.296,8.364
38.3,8.344
38.304,8.56
38.308,8.788
38.312,8.864
38.316,9.012
38.32,9.212
38.324,9.168
38.328,9.008
38.332,8.968
38.336,8.804
38.34,8.3
38.344,7.664
38.348,7.064
38.352,6.82
38.356,6.912
38.36,7.196
38.364,7.408
38.368,7.632
38.372,7.928
38.376,8.144
38.38,8.152
38.384,8.18
38.388,8.352
38.392,8.404
38.396,8.368
38.4,8.3
38.404,8.34
38.408,8.412
38.412,8.368
38.416,8.324
38.42,8.396
38.424,8.488
38.428,8.472
38.432,8.396
38.436,8.396
38.44,8.44
38.444,8.44
38.448,8.392
38.452,8.436
38.456,8.512
38.46,8.508
38.464,8.424
38.468,8.38
38.472,8.476
38.476,8.504
38.48,8.424
38.484,8.4
38.488,8.496
38.492,8.56
38.496,8.468
38.5,8.408
38.504,8.496
38.508,8.556
38.512,8.512
38.516,8.456
38.52,8.528
38.524,8.608
38.528,8.556
38.532,8.548
38.536,8.568
38.54,8.608
38.544,8.572
38.548,8.548
38.552,8.6
38.556,8.716
38.56,8.78
38.564,8.684
38.568,8.704
38.572,8.772
38.576,8.836
38.58,8.768
38.584,8.748
38.588,8.852
38.592,8.948
38.596,8.904
38.6,8.872
38.604,8.944
38.608,8.996
38.612,8.94
38.616,8.852
38.62,8.912
38.624,8.96
38.628,8.916
38.632,8.836
38.636,8.832
38.64,8.872
38.644,8.84
38.648,8.728
38.652,8.716
38.656,8.716
38.66,8.724
38.664,8.612
38.668,8.564
38.672,8.6
38.676,8.636
38.68,8.516
38.684,8.472
38.688,8.524
38.692,8.572
38.696,8.472
38.7,8.424
38.704,8.5
38.708,8.544
38.712,8.456
38.716,8.376
38.72,8.448
38.724,8.476
38.728,8.448
38.732,8.372
38.736,8.412
38.74,8.456
38.744,8.48
38.748,8.372
38.752,8.376
38.756,8.46
38.76,8.452
38.764,8.4
38.768,8.38
38.772,8.456
38.776,8.468
38.78,8.412
38.784,8.356
38.788,8.452
38.792,8.516
38.796,8.424
38.8,8.388
38.804,8.464
38.808,8.528
38.812,8.456
38.816,8.384
38.82,8.408
38.824,8.488
38.828,8.48
38.832,8.4
38.836,8.444
38.84,8.504
38.844,8.512
38.848,8.428
38.852,8.436
38.856,8.504
38.86,8.492
38.864,8.428
38.868,8.38
