0,7.272
0.004,7.496
0.008,7.86
0.012,7.892
0.016,7.76
0.02,7.736
0.024,7.876
0.028,7.916
0.032,7.788
0.036,7.716
0.04,7.84
0.044,7.956
0.048,7.82
0.052,7.712
0.056,7.828
0.06,7.948
0.064,7.86
0.068,7.708
0.072,7.796
0.076,7.924
0.08,7.9
0.084,7.716
0.088,7.764
0.092,7.924
0.096,7.92
0.1,7.744
0.104,7.76
0.108,7.912
0.112,7.94
0.116,7.768
0.12,7.752
0.124,7.928
0.128,7.956
0.132,7.816
0.136,7.732
0.14,7.868
0.144,8.004
0.148,7.864
0.152,7.752
0.156,7.868
0.16,8.028
0.164,7.916
0.168,7.792
0.172,7.872
0.176,8.032
0.18,7.992
0.184,7.856
0.188,7.896
0.192,8.096
0.196,8.092
0.2,7.932
0.204,7.932
0.208,8.14
0.212,8.188
0.216,8.024
0.22,8.004
0.224,8.164
0.228,8.284
0.232,8.14
0.236,8.088
0.24,8.2
0.244,8.356
0.248,8.236
0.252,8.128
0.256,8.26
0.26,8.42
0.264,8.32
0.268,8.188
0.272,8.26
0.276,8.392
0.28,8.296
0.284,8.104
0.288,8.136
0.292,8.272
0.296,8.196
0.3,8.004
0.304,7.98
0.308,8.112
0.312,8.132
0.316,7.936
0.32,7.884
0.324,8.008
0.328,8.092
0.332,7.912
0.336,7.808
0.34,7.972
0.344,8.044
0.348,7.916
0.352,7.776
0.356,7.896
0.36,8.052
0.364,7.94
0.368,7.756
0.372,7.848
0.376,8.004
0.38,7.948
0.384,7.816
0.388,7.832
0.392,7.988
0.396,7.956
0.4,7.776
0.404,7.804
0.408,7.956
0.412,8.004
0.416,7.828
0.42,7.764
0.424,7.944
0.428,8.024
0.432,7.844
0.436,7.768
0.44,7.936
0.444,8.036
0.448,7.912
0.452,7.772
0.456,7.904
0.46,8.028
0.464,7.936
0.468,7.792
0.472,7.868
0.476,8.024
0.48,7.972
0.484,7.78
0.488,7.832
0.492,8.012
0.496,7.972
0.5,7.792
0.504,7.772
0.508,7.964
0.512,8.012
0.516,7.836
0.52,7.808
0.524,7.956
0.528,8
0.532,7.84
0.536,7.776
0.54,7.92
0.544,8.02
0.548,7.868
0.552,7.772
0.556,7.864
0.56,7.992
0.564,7.892
0.568,7.784
0.572,7.856
0.576,7.996
0.58,7.932
0.584,7.784
0.588,7.824
0.592,7.96
0.596,7.96
0.6,7.804
0.604,7.792
0.608,7.948
0.612,7.98
0.616,7.832
0.62,7.764
0.624,7.924
0.628,7.996
0.632,7.84
0.636,7.74
0.64,7.892
0.644,7.988
0.648,7.884
0.652,7.776
0.656,7.872
0.66,7.996
0.664,7.928
0.668,7.768
0.672,7.852
0.676,7.984
0.68,7.94
0.684,7.784
0.688,7.82
0.692,7.984
0.696,7.988
0.7,7.812
0.704,7.796
0.708,7.96
0.712,7.964
0.716,7.828
0.72,7.796
0.724,7.948
0.728,8.028
0.732,7.844
0.736,7.748
0.74,7.908
0.744,8.048
0.748,7.908
0.752,7.836
0.756,7.964
0.76,8.116
0.764,7.992
0.768,7.868
0.772,7.956
0.776,8.16
0.78,8.188
0.784,8.072
0.788,8.144
0.792,8.304
0.796,8.268
0.8,8.068
0.804,8.032
0.808,8.164
0.812,8.18
0.816,7.996
0.82,7.952
0.824,8.072
0.828,8.124
0.832,7.944
0.836,7.82
0.84,7.916
0.844,8.008
0.848,7.868
0.852,7.748
0.856,7.86
0.86,7.98
0.864,7.888
0.868,7.744
0.872,7.804
0.876,7.944
0.88,7.912
0.884,7.744
0.888,7.772
0.892,7.952
0.896,7.936
0.9,7.784
0.904,7.764
0.908,7.896
0.912,7.948
0.916,7.78
0.92,7.756
0.924,7.92
0.928,7.992
0.932,7.804
0.936,7.74
0.94,7.904
0.944,8.004
0.948,7.812
0.952,7.672
0.956,7.904
0.96,8.392
0.964,8.8
0.968,9.208
0.972,9.916
0.976,10.54
0.98,10.2
0.984,9.112
0.988,8.468
0.992,7.988
0.996,7.576
1,7.264
1.004,7.324
1.008,7.652
1.012,7.916
1.016,7.836
1.02,7.8
1.024,7.972
1.028,8.068
1.032,7.892
1.036,7.796
1.04,7.924
1.044,8.016
1.048,7.896
1.052,7.796
1.056,7.896
1.06,8.024
1.064,7.916
1.068,7.792
1.072,7.884
1.076,8.012
1.08,7.968
1.084,7.808
1.088,7.84
1.092,8.02
1.096,8.016
1.1,7.824
1.104,7.82
1.108,7.98
1.112,8.036
1.116,7.86
1.12,7.812
1.124,7.972
1.128,8.028
1.132,7.884
1.136,7.82
1.14,7.956
1.144,8.064
1.148,7.928
1.152,7.808
1.156,7.924
1.16,8.084
1.164,7.98
1.168,7.86
1.172,7.92
1.176,8.092
1.18,8.056
1.184,7.936
1.188,7.964
1.192,8.092
1.196,8.12
1.2,7.956
1.204,8.008
1.208,8.172
1.212,8.184
1.216,8.052
1.22,8.052
1.224,8.216
1.228,8.324
1.232,8.188
1.236,8.1
1.24,8.292
1.244,8.408
1.248,8.276
1.252,8.204
1.256,8.332
1.26,8.456
1.264,8.344
1.268,8.244
1.272,8.308
1.276,8.468
1.28,8.388
1.284,8.2
1.288,8.212
1.292,8.316
1.296,8.3
1.3,8.108
1.304,8.1
1.308,8.216
1.312,8.216
1.316,8.016
1.32,7.952
1.324,8.072
1.328,8.116
1.332,7.968
1.336,7.864
1.34,7.996
1.344,8.112
1.348,7.936
1.352,7.8
1.356,7.92
1.36,8.096
1.364,7.98
1.368,7.84
1.372,7.928
1.376,8.052
1.38,7.992
1.384,7.84
1.388,7.88
1.392,8.052
1.396,8.008
1.4,7.86
1.404,7.832
1.408,7.98
1.412,8.044
1.416,7.86
1.42,7.848
1.424,7.98
1.428,8.052
1.432,7.888
1.436,7.8
1.44,7.948
1.444,8.064
1.448,7.924
1.452,7.8
1.456,7.892
1.46,8.052
1.464,7.968
1.468,7.832
1.472,7.872
1.476,8.024
1.48,7.988
1.484,7.844
1.488,7.864
1.492,8.032
1.496,8.012
1.5,7.848
1.504,7.868
1.508,8.016
1.512,8.036
1.516,7.868
1.52,7.828
1.524,7.968
1.528,8.052
1.532,7.904
1.536,7.824
1.54,7.972
1.544,8.08
1.548,7.932
1.552,7.812
1.556,7.908
1.56,8.056
1.564,7.948
1.568,7.816
1.572,7.896
1.576,8.04
1.58,7.972
1.584,7.804
1.588,7.824
1.592,8.04
1.596,8.028
1.6,7.844
1.604,7.836
1.608,8.004
1.612,8.052
1.616,7.88
1.62,7.828
1.624,7.972
1.628,8.064
1.632,7.868
1.636,7.844
1.64,7.948
1.644,8.072
1.648,7.908
1.652,7.812
1.656,7.932
1.66,8.06
1.664,7.94
1.668,7.788
1.672,7.876
1.676,8.016
1.68,7.98
1.684,7.808
1.688,7.864
1.692,8.016
1.696,7.984
1.7,7.832
1.704,7.844
1.708,8.004
1.712,8.012
1.716,7.848
1.72,7.82
1.724,7.968
1.728,8.044
1.732,7.896
1.736,7.808
1.74,7.944
1.744,8.08
1.748,7.932
1.752,7.804
1.756,7.908
1.76,8.044
1.764,7.988
1.768,7.852
1.772,7.964
1.776,8.124
1.78,8.028
1.784,7.904
1.788,7.94
1.792,8.136
1.796,8.212
1.8,8.108
1.804,8.108
1.808,8.256
1.812,8.26
1.816,8.06
1.82,8.016
1.824,8.132
1.828,8.168
1.832,8.012
1.836,7.952
1.84,8.072
1.844,8.156
1.848,8.012
1.852,7.86
1.856,7.92
1.86,8.028
1.864,7.912
1.868,7.748
1.872,7.856
1.876,8.008
1.88,7.948
1.884,7.764
1.888,7.8
1.892,7.952
1.896,7.968
1.9,7.76
1.904,7.78
1.908,7.952
1.912,7.972
1.916,7.796
1.92,7.776
1.924,7.924
1.928,7.996
1.932,7.808
1.936,7.752
1.94,7.908
1.944,7.992
1.948,7.848
1.952,7.74
1.956,7.904
1.96,7.984
1.964,7.9
1.968,7.74
1.972,8
1.976,8.568
1.98,9.04
1.984,9.46
1.988,10.124
1.992,10.6
1.996,9.936
2,8.872
2.004,8.212
2.008,7.8
2.012,7.52
2.016,7.256
2.02,7.38
2.024,7.756
2.028,7.984
2.032,7.852
2.036,7.792
2.04,7.932
2.044,8.064
2.048,7.912
2.052,7.8
2.056,7.9
2.06,8.004
2.064,7.9
2.068,7.812
2.072,7.88
2.076,8.012
2.08,7.952
2.084,7.796
2.088,7.836
2.092,8.008
2.096,7.98
2.1,7.808
2.104,7.8
2.108,7.964
2.112,8
2.116,7.844
2.12,7.792
2.124,7.96
2.128,8.008
2.132,7.872
2.136,7.772
2.14,7.952
2.144,8.056
2.148,7.912
2.152,7.832
2.156,7.952
2.16,8.08
2.164,7.984
2.168,7.816
2.172,7.924
2.176,8.06
2.18,8.028
2.184,7.864
2.188,7.916
2.192,8.108
2.196,8.08
2.2,7.932
2.204,7.932
2.208,8.088
2.212,8.12
2.216,8.008
2.22,7.98
2.224,8.156
2.228,8.22
2.232,8.092
2.236,8.028
2.24,8.184
2.244,8.324
2.248,8.188
2.252,8.104
2.256,8.252
2.26,8.4
2.264,8.332
2.268,8.192
2.272,8.272
2.276,8.432
2.28,8.396
2.284,8.248
2.288,8.28
2.292,8.424
2.296,8.416
2.3,8.208
2.304,8.172
2.308,8.328
2.312,8.324
2.316,8.128
2.32,8.036
2.324,8.188
2.328,8.228
2.332,8.04
2.336,7.936
2.34,8.048
2.344,8.136
2.348,7.992
2.352,7.88
2.356,7.984
2.36,8.104
2.364,7.992
2.368,7.856
2.372,7.928
2.376,8.08
2.38,7.996
2.384,7.848
2.388,7.9
2.392,8.048
2.396,8.024
2.4,7.844
2.404,7.844
2.408,8.008
2.412,8.044
2.416,7.896
2.42,7.848
2.424,7.988
2.428,8.04
2.432,7.908
2.436,7.812
2.44,7.952
2.444,8.04
2.448,7.916
2.452,7.812
2.456,7.928
2.46,8.072
2.464,7.944
2.468,7.816
2.472,7.916
2.476,8.064
2.48,8
2.484,7.828
2.488,7.876
2.492,8.048
2.496,8.008
2.5,7.864
2.504,7.844
2.508,8.016
2.512,8.02
2.516,7.832
2.52,7.852
2.524,8.016
2.528,8.064
2.532,7.896
2.536,7.828
2.54,7.968
2.544,8.088
2.548,7.944
2.552,7.832
2.556,7.924
2.56,8.068
2.564,7.972
2.568,7.824
2.572,7.92
2.576,8.056
2.58,8.004
2.584,7.84
2.588,7.888
2.592,8.06
2.596,8.028
2.6,7.864
2.604,7.852
2.608,8.008
2.612,8.044
2.616,7.88
2.62,7.84
2.624,7.988
2.628,8.084
2.632,7.924
2.636,7.852
2.64,7.98
2.644,8.08
2.648,7.952
2.652,7.84
2.656,7.944
2.66,8.076
2.664,7.968
2.668,7.828
2.672,7.916
2.676,8.064
2.68,8.02
2.684,7.832
2.688,7.868
2.692,8.06
2.696,8.04
2.7,7.86
2.704,7.856
2.708,8.024
2.712,8.052
2.716,7.884
2.72,7.832
2.724,7.996
2.728,8.076
2.732,7.912
2.736,7.848
2.74,7.976
2.744,8.088
2.748,7.948
2.752,7.828
2.756,7.96
2.76,8.124
2.764,8.028
2.768,7.916
2.772,8.024
2.776,8.156
2.78,8.076
2.784,7.932
2.788,7.984
2.792,8.22
2.796,8.28
2.8,8.136
2.804,8.164
2.808,8.3
2.812,8.264
2.816,8.076
2.82,8.028
2.824,8.172
2.828,8.216
2.832,8.032
2.836,7.964
2.84,8.08
2.844,8.184
2.848,8.02
2.852,7.864
2.856,7.936
2.86,8.072
2.864,7.952
2.868,7.812
2.872,7.864
2.876,8.028
2.88,7.956
2.884,7.808
2.888,7.856
2.892,8.02
2.896,7.996
2.9,7.824
2.904,7.832
2.908,7.996
2.912,8.028
2.916,7.856
2.92,7.836
2.924,7.964
2.928,8.06
2.932,7.884
2.936,7.828
2.94,7.956
2.944,8.056
2.948,7.936
2.952,7.812
2.956,7.924
2.96,8.052
2.964,7.928
2.968,7.924
2.972,8.348
2.976,9.004
2.98,9.46
2.984,9.888
2.988,10.344
2.992,10.152
2.996,9.228
3,8.416
3.004,7.816
3.008,7.596
3.012,7.516
3.016,7.44
3.02,7.588
3.024,7.956
3.028,8.128
3.032,7.964
3.036,7.884
3.04,8.036
3.044,8.152
3.048,7.972
3.052,7.872
3.056,7.968
3.06,8.12
3.064,8.028
3.068,7.88
3.072,7.944
3.076,8.1
3.08,8.016
3.084,7.884
3.088,7.932
3.092,8.084
3.096,8.048
3.1,7.892
3.104,7.912
3.108,8.048
3.112,8.1
3.116,7.912
3.12,7.876
3.124,8.028
3.128,8.1
3.132,7.944
3.136,7.864
3.14,8.008
3.144,8.104
3.148,7.984
3.152,7.876
3.156,8
3.16,8.12
3.164,8.012
3.168,7.896
3.172,8
3.176,8.152
3.18,8.088
3.184,7.956
3.188,7.984
3.192,8.188
3.196,8.164
3.2,8.012
3.204,8.024
3.208,8.208
3.212,8.232
3.216,8.092
3.22,8.076
3.224,8.26
3.228,8.34
3.232,8.196
3.236,8.144
3.24,8.332
3.244,8.42
3.248,8.304
3.252,8.22
3.256,8.376
3.26,8.5
3.264,8.424
3.268,8.308
3.272,8.396
3.276,8.556
3.28,8.496
3.284,8.312
3.288,8.36
3.292,8.496
3.296,8.452
3.3,8.276
3.304,8.252
3.308,8.364
3.312,8.348
3.316,8.144
3.32,8.08
3.324,8.216
3.328,8.264
3.332,8.068
3.336,7.952
3.34,8.096
3.344,8.196
3.348,8.06
3.352,7.924
3.356,8.044
3.36,8.132
3.364,8.052
3.368,7.936
3.372,8.008
3.376,8.14
3.38,8.076
3.384,7.892
3.388,7.96
3.392,8.124
3.396,8.088
3.4,7.916
3.404,7.936
3.408,8.08
3.412,8.12
3.416,7.928
3.42,7.912
3.424,8.04
3.428,8.12
3.432,7.944
3.436,7.904
3.44,8.032
3.444,8.128
3.448,7.988
3.452,7.9
3.456,7.992
3.46,8.112
3.464,8.024
3.468,7.88
3.472,7.968
3.476,8.12
3.48,8.072
3.484,7.912
3.488,7.952
3.492,8.104
3.496,8.096
3.5,7.928
3.504,7.92
3.508,8.068
3.512,8.108
3.516,7.932
3.52,7.892
3.524,8.056
3.528,8.12
3.532,7.96
3.536,7.864
3.54,8.048
3.544,8.144
3.548,7.984
3.552,7.868
3.556,7.992
3.56,8.116
3.564,8.02
3.568,7.876
3.572,7.944
3.576,8.104
3.58,8.008
3.584,7.88
3.588,7.916
3.592,8.084
3.596,8.036
3.6,7.872
3.604,7.9
3.608,8.056
3.612,8.092
3.616,7.916
3.62,7.888
3.624,8.028
3.628,8.112
3.632,7.952
3.636,7.872
3.64,8
3.644,8.108
3.648,7.992
3.652,7.888
3.656,7.984
3.66,8.104
3.664,7.992
3.668,7.88
3.672,7.964
3.676,8.096
3.68,8.024
3.684,7.888
3.688,7.92
3.692,8.072
3.696,8.06
3.7,7.876
3.704,7.892
3.708,8.06
3.712,8.076
3.716,7.944
3.72,7.888
3.724,8.016
3.728,8.08
3.732,7.932
3.736,7.872
3.74,8.016
3.744,8.108
3.748,7.948
3.752,7.868
3.756,8.008
3.76,8.156
3.764,8.076
3.768,7.948
3.772,8.032
3.776,8.168
3.78,8.112
3.784,7.972
3.788,8.068
3.792,8.328
3.796,8.348
3.8,8.2
3.804,8.176
3.808,8.26
3.812,8.26
3.816,8.088
3.82,8.036
3.824,8.144
3.828,8.216
3.832,8.056
3.836,7.956
3.84,8.112
3.844,8.192
3.848,8.012
3.852,7.852
3.856,7.948
3.86,8.084
3.864,7.944
3.868,7.804
3.872,7.888
3.876,8.064
3.88,7.96
3.884,7.796
3.888,7.868
3.892,8.036
3.896,7.984
3.9,7.824
3.904,7.812
3.908,8.008
3.912,8.032
3.916,7.86
3.92,7.824
3.924,7.98
3.928,8.048
3.932,7.896
3.936,7.828
3.94,7.956
3.944,8.068
3.948,7.936
3.952,7.812
3.956,7.928
3.96,8.028
3.964,7.968
3.968,8.088
3.972,8.636
3.976,9.288
3.98,9.78
3.984,10.076
3.988,10.14
3.992,9.48
3.996,8.748
4,7.98
4.004,7.54
4.008,7.512
4.012,7.552
4.016,7.536
4.02,7.688
4.024,8.028
4.028,8.104
4.032,7.916
4.036,7.876
4.04,7.884
4.044,8.124
4.048,7.976
4.052,7.868
4.056,7.996
4.06,8.116
4.064,8
4.068,7.86
4.072,7.932
4.076,8.092
4.08,7.896
4.084,7.88
4.088,7.908
4.092,8.068
4.096,8.064
4.1,7.872
4.104,7.892
4.108,8.044
4.112,8.072
4.116,7.908
4.12,7.888
4.124,8.04
4.128,8.096
4.132,7.928
4.136,7.844
4.14,8.02
4.144,8.12
4.148,7.972
4.152,7.888
4.156,7.984
4.16,8.148
4.164,8.02
4.168,7.92
4.172,7.992
4.176,8.136
4.18,8.096
4.184,7.936
4.188,8.008
4.192,8.184
4.196,8.164
4.2,8.004
4.204,8.028
4.208,8.208
4.212,8.252
4.216,8.092
4.22,7.992
4.224,8.264
4.228,8.356
4.232,8.212
4.236,8.12
4.24,8.324
4.244,8.38
4.248,8.316
4.252,8.252
4.256,8.352
4.26,8.52
4.264,8.4
4.268,8.304
4.272,8.392
4.276,8.532
4.28,8.472
4.284,8.308
4.288,8.344
4.292,8.472
4.296,8.428
4.3,8.26
4.304,8.212
4.308,8.32
4.312,8.308
4.316,8.1
4.32,8.068
4.324,8.172
4.328,8.216
4.332,8.04
4.336,7.94
4.34,8.096
4.344,8.18
4.348,8.024
4.352,7.92
4.356,8.016
4.36,8.16
4.364,8.032
4.368,7.904
4.372,7.988
4.376,8.124
4.38,8.06
4.384,7.924
4.388,7.96
4.392,8.116
4.396,8.04
4.4,7.92
4.404,7.928
4.408,8.084
4.412,8.096
4.416,7.924
4.42,7.896
4.424,8.028
4.428,8.1
4.432,7.956
4.436,7.88
4.44,8.024
4.444,8.112
4.448,7.984
4.452,7.904
4.456,7.996
4.46,8.108
4.464,7.984
4.468,7.868
4.472,7.976
4.476,8.096
4.48,8.028
4.484,7.904
4.488,7.936
4.492,8.1
4.496,8.092
4.5,7.904
4.504,7.9
4.508,8.076
4.512,8.096
4.516,7.936
4.52,7.9
4.524,8.06
4.528,8.108
4.532,7.948
4.536,7.88
4.54,8.024
4.544,8.1
4.548,7.952
4.552,7.86
4.556,7.984
4.56,8.116
4.564,8
4.568,7.872
4.572,7.972
4.576,8.1
4.58,8.028
4.584,7.888
4.588,7.916
4.592,8.092
4.596,8.044
4.6,7.896
4.604,7.916
4.608,8.06
4.612,8.064
4.616,7.908
4.62,7.896
4.624,8.06
4.628,8.076
4.632,7.956
4.636,7.848
4.64,8.02
4.644,8.124
4.648,7.972
4.652,7.856
4.656,7.976
4.66,8.116
4.664,8
4.668,7.876
4.672,7.944
4.676,8.104
4.68,8.032
4.684,7.864
4.688,7.936
4.692,8.08
4.696,8.056
4.7,7.888
4.704,7.896
4.708,8.068
4.712,8.056
4.716,7.904
4.72,7.84
4.724,8.012
4.728,8.084
4.732,7.944
4.736,7.856
4.74,8.004
4.744,8.084
4.748,7.952
4.752,7.86
4.756,7.968
4.76,8.1
4.764,8.028
4.768,7.924
4.772,8.048
4.776,8.196
4.78,8.096
4.784,7.944
4.788,8
4.792,8.228
4.796,8.304
4.8,8.184
4.804,8.188
4.808,8.3
4.812,8.288
4.816,8.088
4.82,8.06
4.824,8.18
4.828,8.196
4.832,8.044
4.836,7.988
4.84,8.132
4.844,8.196
4.848,8.044
4.852,7.912
4.856,7.984
4.86,8.108
4.864,7.96
4.868,7.82
4.872,7.9
4.876,8.04
4.88,7.984
4.884,7.828
4.888,7.86
4.892,8.032
4.896,7.992
4.9,7.824
4.904,7.856
4.908,7.996
4.912,8.016
4.916,7.836
4.92,7.816
4.924,7.976
4.928,8.028
4.932,7.896
4.936,7.828
4.94,7.964
4.944,8.06
4.948,7.924
4.952,7.832
4.956,7.948
4.96,8.044
4.964,7.928
4.968,7.804
4.972,7.952
4.976,8.384
4.98,8.792
4.984,9.16
4.988,9.744
4.992,10.332
4.996,10.128
5,9.1
5.004,8.44
5.008,8.02
5.012,7.648
5.016,7.336
5.02,7.348
5.024,7.688
5.028,7.956
5.032,7.908
5.036,7.86
5.04,7.996
5.044,8.104
5.048,7.968
5.052,7.844
5.056,7.952
5.06,8.088
5.064,7.976
5.068,7.872
5.072,7.928
5.076,8.084
5.08,8.02
5.084,7.856
5.088,7.92
5.092,8.056
5.096,8.044
5.1,7.872
5.104,7.88
5.108,8.056
5.112,8.084
5.116,7.916
5.12,7.884
5.124,8.052
5.128,8.08
5.132,7.944
5.136,7.848
5.14,7.996
5.144,8.116
5.148,7.98
5.152,7.876
5.156,7.976
5.16,8.116
5.164,8.008
5.168,7.912
5.172,7.972
5.176,8.128
5.18,8.064
5.184,7.92
5.188,7.988
5.192,8.152
5.196,8.128
5.2,7.94
5.204,7.968
5.208,8.172
5.212,8.184
5.216,8.052
5.22,8
5.224,8.188
5.228,8.28
5.232,8.148
5.236,8.076
5.24,8.236
5.244,8.364
5.248,8.268
5.252,8.184
5.256,8.328
5.26,8.476
5.264,8.364
5.268,8.248
5.272,8.36
5.276,8.504
5.28,8.428
5.284,8.256
5.288,8.328
5.292,8.48
5.296,8.452
5.3,8.228
5.304,8.232
5.308,8.36
5.312,8.364
5.316,8.144
5.32,8.088
5.324,8.208
5.328,8.252
5.332,8.052
5.336,7.976
5.34,8.1
5.344,8.2
5.348,8.012
5.352,7.912
5.356,8.016
5.36,8.14
5.364,7.988
5.368,7.868
5.372,7.976
5.376,8.068
5.38,8.032
5.384,7.864
5.388,7.924
5.392,8.08
5.396,8.044
5.4,7.884
5.404,7.9
5.408,8.044
5.412,8.04
5.416,7.872
5.42,7.844
5.424,8.032
5.428,8.056
5.432,7.856
5.436,7.808
5.44,7.98
5.444,8.092
5.448,7.928
5.452,7.844
5.456,7.956
5.46,8.072
5.464,7.976
5.468,7.832
5.472,7.936
5.476,8.068
5.48,7.984
5.484,7.824
5.488,7.864
5.492,8.048
5.496,8.04
5.5,7.872
5.504,7.88
5.508,8.056
5.512,8.084
5.516,7.892
5.52,7.852
5.524,7.988
5.528,8.048
5.532,7.916
5.536,7.828
5.54,7.992
5.544,8.048
5.548,7.916
5.552,7.828
5.556,7.956
5.56,8.044
5.564,7.96
5.568,7.808
5.572,7.932
5.576,8.068
5.58,7.972
5.584,7.812
5.588,7.86
5.592,8.036
5.596,8.02
5.6,7.86
5.604,7.836
5.608,8.012
5.612,8.012
5.616,7.872
5.62,7.832
5.624,7.988
5.628,8.024
5.632,7.868
5.636,7.82
5.64,7.98
5.644,8.064
5.648,7.908
5.652,7.82
5.656,7.924
5.66,8.088
5.664,7.96
5.668,7.808
5.672,7.896
5.676,8.056
5.68,7.984
5.684,7.828
5.688,7.876
5.692,8.036
5.696,7.988
5.7,7.832
5.704,7.856
5.708,8.004
5.712,8.028
5.716,7.848
5.72,7.836
5.724,7.984
5.728,8.064
5.732,7.88
5.736,7.808
5.74,7.952
5.744,8.064
5.748,7.936
5.752,7.788
5.756,7.928
5.76,8.056
5.764,7.956
5.768,7.816
5.772,7.98
5.776,8.12
5.78,8.068
5.784,7.9
5.788,7.952
5.792,8.132
5.796,8.104
5.8,7.984
5.804,8.088
5.808,8.316
5.812,8.352
5.816,8.152
5.82,8.072
5.824,8.2
5.828,8.228
5.832,8.064
5.836,7.976
5.84,8.1
5.844,8.192
5.848,8.048
5.852,7.916
5.856,8.06
5.86,8.136
5.864,7.964
5.868,7.816
5.872,7.896
5.876,8.052
5.88,7.988
5.884,7.796
5.888,7.856
5.892,7.988
5.896,7.96
5.9,7.816
5.904,7.828
5.908,7.992
5.912,7.98
5.916,7.792
5.92,7.784
5.924,7.956
5.928,8
5.932,7.844
5.936,7.744
5.94,7.928
5.944,8.04
5.948,7.884
5.952,7.808
5.956,7.928
5.96,8.048
5.964,7.928
5.968,7.82
5.972,7.9
5.976,8.004
5.98,7.928
5.984,7.952
5.988,8.396
5.992,9.036
5.996,9.576
6,10.032
6.004,10.392
6.008,9.94
6.012,9.056
6.016,8.212
6.02,7.596
6.024,7.464
6.028,7.46
6.032,7.44
6.036,7.588
6.04,7.928
6.044,8.076
6.048,7.924
6.052,7.86
6.056,7.948
6.06,8.084
6.064,7.944
6.068,7.828
6.072,7.936
6.076,8.076
6.08,7.98
6.084,7.824
6.088,7.88
6.092,8.068
6.096,8.04
6.1,7.856
6.104,7.86
6.108,8.024
6.112,8.052
6.116,7.896
6.12,7.868
6.124,8.028
6.128,8.092
6.132,7.908
6.136,7.864
6.14,7.996
6.144,8.052
6.148,7.932
6.152,7.84
6.156,7.984
6.16,8.092
6.164,7.98
6.168,7.856
6.172,7.972
6.176,8.1
6.18,8.024
6.184,7.892
6.188,7.94
6.192,8.108
6.196,8.092
6.2,7.948
6.204,7.988
6.208,8.128
6.212,8.14
6.216,7.996
6.22,7.988
6.224,8.132
6.228,8.228
6.232,8.064
6.236,8.02
6.24,8.188
6.244,8.3
6.248,8.184
6.252,8.104
6.256,8.264
6.26,8.392
6.264,8.288
6.268,8.196
6.272,8.296
6.276,8.46
6.28,8.38
6.284,8.26
6.288,8.34
6.292,8.5
6.296,8.444
6.3,8.296
6.304,8.288
6.308,8.44
6.312,8.428
6.316,8.22
6.32,8.176
6.324,8.316
6.328,8.328
6.332,8.136
6.336,8.032
6.34,8.16
6.344,8.204
6.348,8.052
6.352,7.952
6.356,8.044
6.36,8.152
6.364,8.004
6.368,7.88
6.372,7.964
6.376,8.12
6.38,8.032
6.384,7.872
6.388,7.9
6.392,8.088
6.396,8.064
6.4,7.884
6.404,7.88
6.408,8.044
6.412,8.044
6.416,7.872
6.42,7.848
6.424,8.012
6.428,8.06
6.432,7.912
6.436,7.856
6.44,8.004
6.444,8.1
6.448,7.944
6.452,7.852
6.456,7.972
6.46,8.08
6.464,7.976
6.468,7.84
6.472,7.936
6.476,8.072
6.48,8.008
6.484,7.86
6.488,7.924
6.492,8.06
6.496,8.044
6.5,7.88
6.504,7.916
6.508,8.072
6.512,8.084
6.516,7.908
6.52,7.904
6.524,8.056
6.528,8.112
6.532,7.924
6.536,7.872
6.54,8.016
6.544,8.1
6.548,7.948
6.552,7.864
6.556,7.992
6.56,8.096
6.564,7.976
6.568,7.872
6.572,7.956
6.576,8.084
6.58,8
6.584,7.872
6.588,7.928
6.592,8.096
6.596,8.044
6.6,7.88
6.604,7.88
6.608,8.012
6.612,8.052
6.616,7.896
6.62,7.852
6.624,8.028
6.628,8.064
6.632,7.92
6.636,7.872
6.64,8.004
6.644,8.072
6.648,7.924
6.652,7.856
6.656,7.952
6.66,8.084
6.664,7.968
6.668,7.836
6.672,7.948
6.676,8.076
6.68,8
6.684,7.848
6.688,7.912
6.692,8.072
6.696,8.02
6.7,7.876
6.704,7.896
6.708,8.036
6.712,8.044
6.716,7.892
6.72,7.892
6.724,8.024
6.728,8.076
6.732,7.924
6.736,7.86
6.74,8.024
6.744,8.096
6.748,7.956
6.752,7.852
6.756,7.98
6.76,8.096
6.764,7.984
6.768,7.88
6.772,7.932
6.776,8.06
6.78,8.012
6.784,7.876
6.788,7.944
6.792,8.108
6.796,8.096
6.8,7.96
6.804,8.004
6.808,8.12
6.812,8.136
6.816,7.96
6.82,8.02
6.824,8.252
6.828,8.372
6.832,8.2
6.836,8.128
6.84,8.228
6.844,8.268
6.848,8.12
6.852,8.032
6.856,8.1
6.86,8.196
6.864,8.072
6.868,7.964
6.872,8.06
6.876,8.172
6.88,8.072
6.884,7.868
6.888,7.9
6.892,8.056
6.896,8.008
6.9,7.808
6.904,7.824
6.908,7.984
6.912,8.012
6.916,7.864
6.92,7.828
6.924,7.98
6.928,8.02
6.932,7.864
6.936,7.812
6.94,7.972
6.944,8.032
6.948,7.888
6.952,7.82
6.956,7.944
6.96,8.052
6.964,7.944
6.968,7.828
6.972,7.908
6.976,8.048
6.98,7.968
6.984,7.852
6.988,7.896
6.992,8.04
6.996,7.988
7,7.816
7.004,7.936
7.008,8.392
7.012,8.912
7.016,9.28
7.02,9.856
7.024,10.476
7.028,10.24
7.032,9.144
7.036,8.42
7.04,7.924
7.044,7.64
7.048,7.368
7.052,7.344
7.056,7.636
7.06,7.968
7.064,7.972
7.068,7.876
7.072,7.968
7.076,8.1
7.08,8.016
7.084,7.884
7.088,7.94
7.092,8.092
7.096,8.028
7.1,7.896
7.104,7.904
7.108,8.076
7.112,8.06
7.116,7.912
7.12,7.872
7.124,8.04
7.128,8.088
7.132,7.92
7.136,7.88
7.14,8.012
7.144,8.104
7.148,7.956
7.152,7.876
7.156,8.008
7.16,8.088
7.164,7.992
7.168,7.86
7.172,7.984
7.176,8.104
7.18,8.024
7.184,7.88
7.188,7.94
7.192,8.096
7.196,8.072
7.2,7.908
7.204,7.928
7.208,8.092
7.212,8.092
7.216,7.948
7.22,7.932
7.224,8.08
7.228,8.156
7.232,7.996
7.236,7.964
7.24,8.128
7.244,8.212
7.248,8.088
7.252,8.012
7.256,8.14
7.26,8.296
7.264,8.216
7.268,8.072
7.272,8.204
7.276,8.368
7.28,8.3
7.284,8.204
7.288,8.276
7.292,8.42
7.296,8.416
7.3,8.288
7.304,8.304
7.308,8.476
7.312,8.468
7.316,8.32
7.32,8.308
7.324,8.448
7.328,8.488
7.332,8.324
7.336,8.204
7.34,8.324
7.344,8.388
7.348,8.224
7.352,8.096
7.356,8.176
7.36,8.256
7.364,8.128
7.368,8.008
7.372,8.068
7.376,8.192
7.38,8.1
7.384,7.944
7.388,8
7.392,8.132
7.396,8.108
7.4,7.94
7.404,7.932
7.408,8.088
7.412,8.092
7.416,7.928
7.42,7.92
7.424,8.064
7.428,8.128
7.432,7.944
7.436,7.912
7.44,8.048
7.444,8.108
7.448,7.96
7.452,7.896
7.456,8.012
7.46,8.14
7.464,8.024
7.468,7.896
7.472,7.972
7.476,8.152
7.48,8.036
7.484,7.912
7.488,7.948
7.492,8.1
7.496,8.076
7.5,7.92
7.504,7.932
7.508,8.096
7.512,8.08
7.516,7.924
7.52,7.908
7.524,8.06
7.528,8.1
7.532,7.944
7.536,7.896
7.54,8.04
7.544,8.128
7.548,7.98
7.552,7.884
7.556,8.02
7.56,8.112
7.564,8.004
7.568,7.888
7.572,7.98
7.576,8.096
7.58,8.028
7.584,7.892
7.588,7.952
7.592,8.08
7.596,8.04
7.6,7.9
7.604,7.928
7.608,8.076
7.612,8.084
7.616,7.92
7.62,7.896
7.624,8.06
7.628,8.096
7.632,7.96
7.636,7.904
7.64,8.04
7.644,8.116
7.648,7.972
7.652,7.88
7.656,8.016
7.66,8.104
7.664,7.992
7.668,7.884
7.672,7.984
7.676,8.108
7.68,8.02
7.684,7.904
7.688,7.948
7.692,8.124
7.696,8.08
7.7,7.94
7.704,7.932
7.708,8.076
7.712,8.084
7.716,7.92
7.72,7.936
7.724,8.048
7.728,8.1
7.732,7.96
7.736,7.952
7.74,8.092
7.744,8.136
7.748,7.984
7.752,7.896
7.756,7.992
7.76,8.124
7.764,8.044
7.768,7.92
7.772,7.996
7.776,8.096
7.78,8.008
7.784,7.9
7.788,7.92
7.792,8
7.796,7.972
7.8,7.864
7.804,7.88
7.808,8.032
7.812,8.04
7.816,7.896
7.82,7.908
7.824,8.064
7.828,8.132
7.832,8.032
7.836,8.016
7.84,8.148
7.844,8.252
7.848,8.212
7.852,8.248
7.856,8.376
7.86,8.448
7.864,8.292
7.868,8.148
7.872,8.204
7.876,8.308
7.88,8.232
7.884,8.06
7.888,8.128
7.892,8.276
7.896,8.192
7.9,8.06
7.904,8.028
7.908,8.128
7.912,8.104
7.916,7.936
7.92,7.912
7.924,8.036
7.928,8.064
7.932,7.912
7.936,7.904
7.94,8
7.944,8.072
7.948,7.928
7.952,7.88
7.956,7.96
7.96,8.064
7.964,7.94
7.968,7.864
7.972,7.94
7.976,8.064
7.98,7.984
7.984,7.868
7.988,7.92
7.992,8.04
7.996,8.024
8,7.892
8.004,7.916
8.008,8.036
8.012,8.044
8.016,7.924
8.02,7.908
8.024,7.992
8.028,8.016
8.032,7.988
8.036,8.212
8.04,8.824
8.044,9.392
8.048,9.852
8.052,10.224
8.056,10.132
8.06,9.352
8.064,8.58
8.068,7.888
8.072,7.552
8.076,7.496
8.08,7.504
8.084,7.584
8.088,7.852
8.092,8.08
8.096,8.06
8.1,7.94
8.104,7.98
8.108,8.108
8.112,8.072
8.116,7.944
8.12,7.94
8.124,8.092
8.128,8.116
8.132,7.98
8.136,7.952
8.14,8.052
8.144,8.136
8.148,7.996
8.152,7.936
8.156,8.024
8.16,8.1
8.164,8.024
8.168,7.936
8.172,8.02
8.176,8.116
8.18,8.032
8.184,7.92
8.188,7.984
8.192,8.104
8.196,8.072
8.2,7.944
8.204,7.96
8.208,8.072
8.212,8.08
8.216,7.98
8.22,7.96
8.224,8.08
8.228,8.084
8.232,8.004
8.236,7.968
8.24,8.096
8.244,8.156
8.248,8.048
8.252,8.004
8.256,8.104
8.26,8.184
8.264,8.112
8.268,8.028
8.272,8.124
8.276,8.244
8.28,8.188
8.284,8.108
8.288,8.164
8.292,8.288
8.296,8.268
8.3,8.188
8.304,8.236
8.308,8.384
8.312,8.408
8.316,8.288
8.32,8.304
8.324,8.424
8.328,8.444
8.332,8.348
8.336,8.316
8.34,8.432
8.344,8.512
8.348,8.384
8.352,8.308
8.356,8.416
8.36,8.456
8.364,8.372
8.368,8.232
8.372,8.296
8.376,8.356
8.38,8.268
8.384,8.116
8.388,8.152
8.392,8.236
8.396,8.18
8.4,8.02
8.404,8.044
8.408,8.156
8.412,8.124
8.416,8.008
8.42,7.968
8.424,8.096
8.428,8.12
8.432,8
8.436,7.932
8.44,8.064
8.444,8.132
8.448,7.988
8.452,7.936
8.456,8.04
8.46,8.128
8.464,8.032
8.468,7.936
8.472,8.016
8.476,8.128
8.48,8.044
8.484,7.936
8.488,7.976
8.492,8.096
8.496,8.08
8.5,7.956
8.504,7.976
8.508,8.076
8.512,8.076
8.516,7.972
8.52,7.948
8.524,8.056
8.528,8.112
8.532,7.952
8.536,7.932
8.54,8.064
8.544,8.128
8.548,8
8.552,7.948
8.556,8.048
8.56,8.14
8.564,8.024
8.568,7.928
8.572,8.016
8.576,8.116
8.58,8.056
8.584,7.96
8.588,8.008
8.592,8.104
8.596,8.06
8.6,7.96
8.604,7.972
8.608,8.104
8.612,8.08
8.616,7.956
8.62,7.944
8.624,8.088
8.628,8.108
8.632,7.98
8.636,7.924
8.64,8.044
8.644,8.112
8.648,8.028
8.652,7.928
8.656,8.016
8.66,8.1
8.664,8.024
8.668,7.936
8.672,7.996
8.676,8.072
8.68,8.044
8.684,7.924
8.688,7.988
8.692,8.092
8.696,8.052
8.7,7.936
8.704,7.94
8.708,8.08
8.712,8.072
8.716,7.94
8.72,7.936
8.724,8.06
8.728,8.088
8.732,7.96
8.736,7.936
8.74,8.02
8.744,8.096
8.748,7.98
8.752,7.936
8.756,8.024
8.76,8.112
8.764,8.012
8.768,7.904
8.772,7.98
8.776,8.116
8.78,8.032
8.784,7.936
8.788,7.956
8.792,8.092
8.796,8.056
8.8,7.956
8.804,7.964
8.808,8.096
8.812,8.068
8.816,7.932
8.82,7.964
8.824,8.088
8.828,8.108
8.832,7.964
8.836,7.948
8.84,8.08
8.844,8.092
8.848,8.016
8.852,7.968
8.856,8.084
8.86,8.192
8.864,8.12
8.868,8.024
8.872,8.068
8.876,8.18
8.88,8.132
8.884,8.076
8.888,8.224
8.892,8.388
8.896,8.336
8.9,8.228
8.904,8.188
8.908,8.284
8.912,8.276
8.916,8.116
8.92,8.072
8.924,8.192
8.928,8.224
8.932,8.1
8.936,8.048
8.94,8.14
8.944,8.152
8.948,7.984
8.952,7.928
8.956,7.992
8.96,8.048
8.964,7.96
8.968,7.9
8.972,7.976
8.976,8.076
8.98,8
8.984,7.896
8.988,7.956
8.992,8.06
8.996,8.004
9,7.892
9.004,7.916
9.008,8.04
9.012,8.044
9.016,7.932
9.02,7.908
9.024,8.028
9.028,8.064
9.032,7.928
9.036,7.888
9.04,8.004
9.044,8.06
9.048,7.972
9.052,7.9
9.056,8.02
9.06,8.088
9.064,7.956
9.068,7.912
9.072,8.184
9.076,8.72
9.08,9.156
9.084,9.584
9.088,10.14
9.092,10.352
9.096,9.584
9.1,8.692
9.104,8.148
9.108,7.772
9.112,7.536
9.116,7.384
9.12,7.536
9.124,7.86
9.128,8.06
9.132,7.956
9.136,7.9
9.14,8.044
9.144,8.104
9.148,7.992
9.152,7.912
9.156,8.016
9.16,8.156
9.164,8.92
9.168,8.688
9.172,8.284
9.176,8.12
9.18,7.936
9.184,7.764
9.188,7.82
9.192,7.912
9.196,7.828
9.2,7.7
9.204,7.716
9.208,7.856
9.212,7.872
9.216,7.716
9.22,7.732
9.224,7.876
9.228,7.92
9.232,7.808
9.236,7.76
9.24,7.892
9.244,7.98
9.248,7.892
9.252,7.816
9.256,7.936
9.26,8.036
9.264,7.96
9.268,7.876
9.272,7.948
9.276,8.088
9.28,8.02
9.284,7.928
9.288,7.968
9.292,8.112
9.296,8.08
9.3,8
9.304,8.016
9.308,8.148
9.312,8.18
9.316,8.072
9.32,8.092
9.324,8.228
9.328,8.272
9.332,8.148
9.336,8.152
9.34,8.288
9.344,8.372
9.348,8.26
9.352,8.224
9.356,8.364
9.36,8.444
9.364,8.368
9.368,8.3
9.372,8.412
9.376,8.52
9.38,8.46
9.384,8.352
9.388,8.368
9.392,8.484
9.396,8.444
9.4,8.296
9.404,8.304
9.408,8.376
9.412,8.344
9.416,8.184
9.42,8.148
9.424,8.252
9.428,8.26
9.432,8.108
9.436,8.052
9.44,8.14
9.444,8.2
9.448,8.064
9.452,7.984
9.456,8.072
9.46,8.16
9.464,8.048
9.468,7.988
9.472,8.04
9.476,8.14
9.48,8.036
9.484,7.936
9.488,8.012
9.492,8.116
9.496,8.076
9.5,7.944
9.504,7.976
9.508,8.104
9.512,8.096
9.516,7.932
9.52,7.94
9.524,8.064
9.528,8.092
9.532,7.96
9.536,7.916
9.54,8.052
9.544,8.084
9.548,7.968
9.552,7.904
9.556,8.02
9.56,8.092
9.564,7.984
9.568,7.88
9.572,8
9.576,8.108
9.58,8.032
9.584,7.92
9.588,7.976
9.592,8.088
9.596,8.048
9.6,7.932
9.604,7.944
9.608,8.072
9.612,8.048
9.616,7.936
9.62,7.928
9.624,8.064
9.628,8.072
9.632,7.916
9.636,7.916
9.64,8.044
9.644,8.068
9.648,7.952
9.652,7.884
9.656,8.008
9.66,8.1
9.664,7.988
9.668,7.888
9.672,7.976
9.676,8.076
9.68,8.008
9.684,7.876
9.688,7.956
9.692,8.084
9.696,8.02
9.7,7.912
9.704,7.924
9.708,8.088
9.712,8.06
9.716,7.904
9.72,7.932
9.724,8.032
9.728,8.084
9.732,7.92
9.736,7.892
9.74,8.02
9.744,8.076
9.748,7.96
9.752,7.88
9.756,8.012
9.76,8.076
9.764,7.956
9.768,7.88
9.772,7.956
9.776,8.068
9.78,7.964
9.784,7.852
9.788,7.952
9.792,8.056
9.796,8.032
9.8,7.884
9.804,7.916
9.808,8.036
9.812,8.064
9.816,7.904
9.82,7.888
9.824,8.012
9.828,8.056
9.832,7.928
9.836,7.896
9.84,8.02
9.844,8.076
9.848,7.936
9.852,7.868
9.856,7.992
9.86,8.104
9.864,7.968
9.868,7.872
9.872,7.984
9.876,8.1
9.88,8.032
9.884,7.876
9.888,7.96
9.892,8.108
9.896,8.064
9.9,7.972
9.904,8.016
9.908,8.176
9.912,8.164
9.916,8.004
9.92,7.98
9.924,8.16
9.928,8.232
9.932,8.164
9.936,8.192
9.94,8.356
9.944,8.4
9.948,8.196
9.952,8.084
9.956,8.2
9.96,8.284
9.964,8.116
9.968,8.004
9.972,8.124
9.976,8.224
9.98,8.104
9.984,8
9.988,8.028
9.992,8.132
9.996,8.048
10,7.888
10.004,7.916
10.008,8.052
10.012,8.064
10.016,7.876
10.02,7.892
10.024,8.044
10.028,8.06
10.032,7.904
10.036,7.876
10.04,8.008
10.044,8.084
10.048,7.924
10.052,7.864
10.056,7.972
10.06,8.076
10.064,7.952
10.068,7.868
10.072,7.972
10.076,8.088
10.08,7.976
10.084,7.864
10.088,7.932
10.092,8.064
10.096,8.028
10.1,7.872
10.104,7.892
10.108,8
10.112,8.016
10.116,8.02
10.12,8.392
10.124,9.012
10.128,9.548
10.132,9.928
10.136,10.196
10.14,9.792
10.144,8.996
10.148,8.276
10.152,7.668
10.156,7.504
10.16,7.524
10.164,7.496
10.168,7.576
10.172,7.892
10.176,8.092
10.18,7.98
10.184,7.9
10.188,7.984
10.192,8.088
10.196,8.036
10.2,7.928
10.204,7.968
10.208,8.088
10.212,8.068
10.216,7.924
10.22,7.928
10.224,8.056
10.228,8.096
10.232,7.908
10.236,7.884
10.24,8.036
10.244,8.116
10.248,7.98
10.252,7.908
10.256,8.016
10.26,8.1
10.264,7.984
10.268,7.904
10.272,7.976
10.276,8.076
10.28,7.984
10.284,7.9
10.288,7.96
10.292,8.1
10.296,8.048
10.3,7.896
10.304,7.968
10.308,8.108
10.312,8.128
10.316,7.96
10.32,7.956
10.324,8.128
10.328,8.152
10.332,8.024
10.336,7.996
10.34,8.128
10.344,8.196
10.348,8.072
10.352,8.004
10.356,8.16
10.36,8.252
10.364,8.148
10.368,8.048
10.372,8.196
10.376,8.328
10.38,8.252
10.384,8.152
10.388,8.228
10.392,8.404
10.396,8.364
10.4,8.256
10.404,8.284
10.408,8.448
10.412,8.444
10.416,8.308
10.42,8.32
10.424,8.46
10.428,8.496
10.432,8.36
10.436,8.312
10.44,8.424
10.444,8.48
10.448,8.328
10.452,8.204
10.456,8.3
10.46,8.336
10.464,8.22
10.468,8.072
10.472,8.152
10.476,8.232
10.48,8.128
10.484,8.004
10.488,8.016
10.492,8.132
10.496,8.088
10.5,7.96
10.504,7.988
10.508,8.116
10.512,8.092
10.516,7.964
10.52,7.952
10.524,8.08
10.528,8.136
10.532,7.96
10.536,7.924
10.54,8.048
10.544,8.108
10.548,8.004
10.552,7.916
10.556,7.992
10.56,8.096
10.564,7.996
10.568,7.948
10.572,8.02
10.576,8.124
10.58,8.068
10.584,7.98
10.588,8.016
10.592,8.144
10.596,8.088
10.6,7.932
10.604,7.968
10.608,8.12
10.612,8.14
10.616,7.98
10.62,7.952
10.624,8.084
10.628,8.164
10.632,8.02
10.636,7.976
10.64,8.036
10.644,8.124
10.648,8.028
10.652,7.94
10.656,8.048
10.66,8.16
10.664,8.048
10.668,7.936
10.672,8.012
10.676,8.172
10.68,8.124
10.684,7.976
10.688,8.056
10.692,8.192
10.696,8.12
10.7,8.012
10.704,8.012
10.708,8.136
10.712,8.132
10.716,7.98
10.72,8
10.724,8.12
10.728,8.128
10.732,7.964
10.736,7.932
10.74,8.06
10.744,8.136
10.748,7.972
10.752,7.908
10.756,7.992
10.76,8.084
10.764,7.972
10.768,7.876
10.772,7.932
10.776,8.036
10.78,7.964
10.784,7.848
10.788,7.9
10.792,8.044
10.796,7.968
10.8,7.86
10.804,7.888
10.808,8.012
10.812,8.008
10.816,7.864
10.82,7.852
10.824,7.984
10.828,8.012
10.832,7.9
10.836,7.86
10.84,7.976
10.844,8.044
10.848,7.928
10.852,7.876
10.856,7.98
10.86,8.056
10.864,7.948
10.868,7.852
10.872,7.952
10.876,8.072
10.88,7.992
10.884,7.864
10.888,7.92
10.892,8.048
10.896,8
10.9,7.884
10.904,7.904
10.908,8.068
10.912,8.048
10.916,7.9
10.92,7.896
10.924,8.012
10.928,8.044
10.932,7.916
10.936,7.888
10.94,8.032
10.944,8.108
10.948,8
10.952,7.96
10.956,8.064
10.96,8.132
10.964,8.028
10.968,7.948
10.972,8.104
10.976,8.316
10.98,8.28
10.984,8.176
10.988,8.188
10.992,8.26
10.996,8.2
11,8.072
11.004,8.068
11.008,8.18
11.012,8.144
11.016,7.984
11.02,7.992
11.024,8.132
11.028,8.168
11.032,7.916
11.036,7.856
11.04,7.98
11.044,8.036
11.048,7.868
11.052,7.796
11.056,7.916
11.06,8.004
11.064,7.9
11.068,7.824
11.072,7.888
11.076,8.004
11.08,7.904
11.084,7.764
11.088,7.88
11.092,8
11.096,7.944
11.1,7.82
11.104,7.84
11.108,7.972
11.112,7.952
11.116,7.82
11.12,7.848
11.124,7.96
11.128,8.012
11.132,7.872
11.136,7.828
11.14,7.948
11.144,8
11.148,7.836
11.152,7.784
11.156,7.896
11.16,8.208
11.164,8.492
11.168,8.904
11.172,9.584
11.176,10.304
11.18,10.432
11.184,9.56
11.188,8.772
11.192,8.232
11.196,7.668
11.2,7.312
11.204,7.308
11.208,7.556
11.212,7.788
11.216,7.844
11.22,7.872
11.224,8.008
11.228,8.052
11.232,7.904
11.236,7.868
11.24,7.988
11.244,8.032
11.248,7.9
11.252,7.844
11.256,7.956
11.26,8.072
11.264,7.948
11.268,7.84
11.272,7.912
11.276,8.024
11.28,7.944
11.284,7.864
11.288,7.908
11.292,8.028
11.296,7.972
11.3,7.832
11.304,7.872
11.308,8
11.312,7.992
11.316,7.864
11.32,7.848
11.324,7.96
11.328,8.004
11.332,7.872
11.336,7.844
11.34,7.964
11.344,8.048
11.348,7.94
11.352,7.876
11.356,7.976
11.36,8.072
11.364,7.96
11.368,7.872
11.372,7.956
11.376,8.076
11.38,8.04
11.384,7.928
11.388,7.988
11.392,8.116
11.396,8.108
11.4,7.972
11.404,8.004
11.408,8.172
11.412,8.184
11.416,8.072
11.42,8.06
11.424,8.216
11.428,8.272
11.432,8.136
11.436,8.144
11.44,8.292
11.444,8.356
11.448,8.232
11.452,8.216
11.456,8.336
11.46,8.428
11.464,8.336
11.468,8.252
11.472,8.34
11.476,8.456
11.48,8.368
11.484,8.224
11.488,8.28
11.492,8.376
11.496,8.296
11.5,8.156
11.504,8.152
11.508,8.224
11.512,8.184
11.516,8.012
11.52,8.004
11.524,8.144
11.528,8.14
11.532,7.94
11.536,7.884
11.54,8.036
11.544,8.088
11.548,7.96
11.552,7.88
11.556,8.004
11.56,8.084
11.564,7.976
11.568,7.872
11.572,7.952
11.576,8.092
11.58,7.996
11.584,7.888
11.588,7.936
11.592,8.052
11.596,8.02
11.6,7.884
11.604,7.9
11.608,8.048
11.612,8.028
11.616,7.872
11.62,7.884
11.624,8.012
11.628,8.064
11.632,7.9
11.636,7.868
11.64,7.984
11.644,8.064
11.648,7.908
11.652,7.864
11.656,7.984
11.66,8.08
11.664,7.936
11.668,7.836
11.672,7.952
11.676,8.08
11.68,7.984
11.684,7.84
11.688,7.908
11.692,8.052
11.696,8.028
11.7,7.876
11.704,7.876
11.708,8.02
11.712,8.024
11.716,7.876
11.72,7.884
11.724,8.02
11.728,8.02
11.732,7.912
11.736,7.84
11.74,8
11.744,8.064
11.748,7.928
11.752,7.84
11.756,7.96
11.76,8.076
11.764,7.956
11.768,7.852
11.772,7.944
11.776,8.084
11.78,7.976
11.784,7.86
11.788,7.936
11.792,8.044
11.796,7.992
11.8,7.856
11.804,7.872
11.808,8.016
11.812,8.004
11.816,7.86
11.82,7.88
11.824,8.004
11.828,8.044
11.832,7.872
11.836,7.84
11.84,7.984
11.844,8.056
11.848,7.888
11.852,7.844
11.856,7.964
11.86,8.044
11.864,7.936
11.868,7.84
11.872,7.956
11.876,8.032
11.88,7.948
11.884,7.84
11.888,7.936
11.892,8.048
11.896,7.988
11.9,7.856
11.904,7.884
11.908,8.024
11.912,8.016
11.916,7.872
11.92,7.848
11.924,7.988
11.928,8.012
11.932,7.88
11.936,7.852
11.94,7.984
11.944,8.06
11.948,7.896
11.952,7.848
11.956,7.976
11.96,8.068
11.964,7.936
11.968,7.84
11.972,7.94
11.976,8.052
11.98,7.968
11.984,7.86
11.988,7.964
11.992,8.12
11.996,8.096
12,7.936
12.004,7.956
12.008,8.1
12.012,8.124
12.016,8.052
12.02,8.148
12.024,8.312
12.028,8.348
12.032,8.148
12.036,8.08
12.04,8.192
12.044,8.24
12.048,8.072
12.052,7.972
12.056,8.1
12.06,8.212
12.064,8.084
12.068,7.976
12.072,8.028
12.076,8.076
12.08,7.972
12.084,7.84
12.088,7.908
12.092,8.02
12.096,7.968
12.1,7.812
12.104,7.884
12.108,8.032
12.112,8.008
12.116,7.848
12.12,7.82
12.124,7.988
12.128,8.016
12.132,7.872
12.136,7.824
12.14,7.98
12.144,8.028
12.148,7.892
12.152,7.828
12.156,7.96
12.16,8.044
12.164,7.936
12.168,7.836
12.172,7.952
12.176,8.072
12.18,7.98
12.184,7.836
12.188,7.9
12.192,8.028
12.196,7.98
12.2,8.036
12.204,8.464
12.208,9.136
12.212,9.7
12.216,10.136
12.22,10.396
12.224,9.856
12.228,8.996
12.232,8.212
12.236,7.624
12.24,7.484
12.244,7.504
12.248,7.464
12.252,7.588
12.256,7.952
12.26,8.08
12.264,7.984
12.268,7.896
12.272,8.004
12.276,8.12
12.28,7.996
12.284,7.888
12.288,7.956
12.292,8.096
12.296,8.02
12.3,7.876
12.304,7.928
12.308,8.068
12.312,8.052
12.316,7.888
12.32,7.888
12.324,8.044
12.328,8.08
12.332,7.92
12.336,7.888
12.34,8.036
12.344,8.092
12.348,7.928
12.352,7.872
12.356,7.992
12.36,8.096
12.364,7.968
12.368,7.892
12.372,7.984
12.376,8.092
12.38,8.016
12.384,7.9
12.388,7.976
12.392,8.104
12.396,8.04
12.4,7.916
12.404,7.98
12.408,8.108
12.412,8.116
12.416,7.94
12.42,7.964
12.424,8.148
12.428,8.18
12.432,8.048
12.436,8.012
12.44,8.18
12.444,8.256
12.448,8.136
12.452,8.084
12.456,8.24
12.46,8.332
12.464,8.22
12.468,8.152
12.472,8.3
12.476,8.428
12.48,8.34
12.484,8.22
12.488,8.324
12.492,8.488
12.496,8.448
12.5,8.308
12.504,8.352
12.508,8.484
12.512,8.48
12.516,8.32
12.52,8.324
12.524,8.468
12.528,8.472
12.532,8.268
12.536,8.224
12.54,8.344
12.544,8.36
12.548,8.188
12.552,8.088
12.556,8.188
12.56,8.252
12.564,8.092
12.568,7.988
12.572,8.06
12.576,8.172
12.58,8.076
12.584,7.96
12.588,8.028
12.592,8.14
12.596,8.068
12.6,7.92
12.604,7.976
12.608,8.12
12.612,8.088
12.616,7.928
12.62,7.956
12.624,8.06
12.628,8.116
12.632,7.948
12.636,7.928
12.64,8.072
12.644,8.136
12.648,7.972
12.652,7.916
12.656,8.04
12.66,8.132
12.664,8
12.668,7.904
12.672,8
12.676,8.124
12.68,8.004
12.684,7.9
12.688,7.984
12.692,8.112
12.696,8.048
12.7,7.908
12.704,7.952
12.708,8.104
12.712,8.076
12.716,7.928
12.72,7.912
12.724,8.068
12.728,8.112
12.732,7.936
12.736,7.936
12.74,8.092
12.744,8.132
12.748,7.956
12.752,7.94
12.756,8.056
12.76,8.136
12.764,8.004
12.768,7.916
12.772,8.012
12.776,8.164
12.78,8.028
12.784,7.92
12.788,7.98
12.792,8.12
12.796,8.08
12.8,7.92
12.804,7.944
12.808,8.108
12.812,8.112
12.816,7.92
12.82,7.924
12.824,8.088
12.828,8.112
12.832,7.94
12.836,7.908
12.84,8.06
12.844,8.152
12.848,7.976
12.852,7.916
12.856,8.028
12.86,8.144
12.864,8.016
12.868,7.916
12.872,8.012
12.876,8.116
12.88,8.016
12.884,7.916
12.888,7.988
12.892,8.116
12.896,8.044
12.9,7.92
12.904,7.976
12.908,8.108
12.912,8.092
12.916,7.924
12.92,7.932
12.924,8.076
12.928,8.104
12.932,7.94
12.936,7.924
12.94,8.072
12.944,8.128
12.948,7.988
12.952,7.9
12.956,8.048
12.96,8.128
12.964,8
12.968,7.904
12.972,8.004
12.976,8.116
12.98,8.024
12.984,7.908
12.988,7.984
12.992,8.136
12.996,8.06
13,7.912
13.004,7.94
13.008,8.08
13.012,8.068
13.016,7.908
13.02,7.936
13.024,8.108
13.028,8.152
13.032,8.024
13.036,8.016
13.04,8.168
13.044,8.196
13.048,8.04
13.052,8.004
13.056,8.172
13.06,8.36
13.064,8.284
13.068,8.208
13.072,8.28
13.076,8.372
13.08,8.236
13.084,8.092
13.088,8.156
13.092,8.252
13.096,8.188
13.1,8.032
13.104,8.096
13.108,8.216
13.112,8.176
13.116,8
13.12,7.948
13.124,8.08
13.128,8.096
13.132,7.924
13.136,7.904
13.14,8.032
13.144,8.088
13.148,7.96
13.152,7.852
13.156,8.008
13.16,8.08
13.164,7.98
13.168,7.872
13.172,7.98
13.176,8.092
13.18,8.004
13.184,7.872
13.188,7.96
13.192,8.088
13.196,8.024
13.2,7.884
13.204,7.932
13.208,8.096
13.212,8.08
13.216,7.912
13.22,7.908
13.224,8.076
13.228,8.1
13.232,7.92
13.236,7.872
13.24,8.072
13.244,8.38
13.248,8.688
13.252,9.164
13.256,9.816
13.26,10.424
13.264,10.284
13.268,9.36
13.272,8.748
13.276,8.264
13.28,7.68
13.284,7.38
13.288,7.428
13.292,7.724
13.296,7.908
13.3,7.92
13.304,7.952
13.308,8.116
13.312,8.108
13.316,7.968
13.32,7.948
13.324,8.12
13.328,8.128
13.332,7.948
13.336,7.94
13.34,8.112
13.344,8.148
13.348,7.98
13.352,7.928
13.356,8.052
13.36,8.164
13.364,8.012
13.368,7.912
13.372,8.004
13.376,8.14
13.38,8.056
13.384,7.928
13.388,7.988
13.392,8.136
13.396,8.064
13.4,7.896
13.404,7.94
13.408,8.084
13.412,8.072
13.416,7.924
13.42,7.936
13.424,8.096
13.428,8.136
13.432,7.944
13.436,7.912
13.44,8.064
13.444,8.156
13.448,8.024
13.452,7.956
13.456,8.096
13.46,8.192
13.464,8.068
13.468,7.988
13.472,8.124
13.476,8.252
13.48,8.144
13.484,8.04
13.488,8.144
13.492,8.296
13.496,8.256
13.5,8.128
13.504,8.176
13.508,8.376
13.512,8.372
13.516,8.24
13.52,8.24
13.524,8.42
13.528,8.472
13.532,8.312
13.536,8.3
13.54,8.472
13.544,8.54
13.548,8.4
13.552,8.34
13.556,8.488
13.56,8.58
13.564,8.416
13.568,8.3
13.572,8.392
13.576,8.48
13.58,8.344
13.584,8.172
13.588,8.2
13.592,8.328
13.596,8.232
13.6,8.072
13.604,8.084
13.608,8.196
13.612,8.172
13.616,7.996
13.62,8.012
13.624,8.148
13.628,8.156
13.632,7.98
13.636,7.968
13.64,8.128
13.644,8.16
13.648,8.004
13.652,7.96
13.656,8.076
13.66,8.164
13.664,8.048
13.668,7.944
13.672,8.064
13.676,8.192
13.68,8.056
13.684,7.944
13.688,8.024
13.692,8.172
13.696,8.084
13.7,7.948
13.704,7.992
13.708,8.144
13.712,8.132
13.716,7.94
13.72,7.964
13.724,8.128
13.728,8.152
13.732,7.976
13.736,7.936
13.74,8.084
13.744,8.152
13.748,7.996
13.752,7.94
13.756,8.068
13.76,8.168
13.764,8.016
13.768,7.924
13.772,8.052
13.776,8.14
13.78,8.052
13.784,7.932
13.788,8.016
13.792,8.148
13.796,8.088
13.8,7.94
13.804,7.952
13.808,8.14
13.812,8.1
13.816,7.948
13.82,7.948
13.824,8.104
13.828,8.144
13.832,7.968
13.836,7.956
13.84,8.084
13.844,8.152
13.848,7.964
13.852,7.88
13.856,8.068
13.86,8.172
13.864,8
13.868,7.876
13.872,8.02
13.876,8.148
13.88,8.052
13.884,7.92
13.888,7.992
13.892,8.124
13.896,8.044
13.9,7.904
13.904,7.956
13.908,8.108
13.912,8.084
13.916,7.932
13.92,7.964
13.924,8.096
13.928,8.144
13.932,7.96
13.936,7.92
13.94,8.084
13.944,8.156
13.948,7.996
13.952,7.908
13.956,8.072
13.96,8.164
13.964,8.008
13.968,7.928
13.972,8.044
13.976,8.144
13.98,8.028
13.984,7.916
13.988,8
13.992,8.144
13.996,8.072
14,7.92
14.004,7.976
14.008,8.128
14.012,8.112
14.016,7.936
14.02,7.932
14.024,8.076
14.028,8.104
14.032,7.972
14.036,7.924
14.04,8.084
14.044,8.116
14.048,7.984
14.052,7.908
14.056,8.052
14.06,8.144
14.064,8.016
14.068,7.92
14.072,8.06
14.076,8.208
14.08,8.108
14.084,8.008
14.088,8.056
14.092,8.188
14.096,8.144
14.1,8.004
14.104,8.132
14.108,8.36
14.112,8.364
14.116,8.232
14.12,8.192
14.124,8.292
14.128,8.296
14.132,8.112
14.136,8.06
14.14,8.172
14.144,8.248
14.148,8.056
14.152,7.996
14.156,8.14
14.16,8.208
14.164,8
14.168,7.892
14.172,7.964
14.176,8.088
14.18,7.976
14.184,7.868
14.188,7.944
14.192,8.068
14.196,8.008
14.2,7.872
14.204,7.896
14.208,8.056
14.212,8.012
14.216,7.852
14.22,7.86
14.224,8.028
14.228,8.052
14.232,7.892
14.236,7.864
14.24,8.008
14.244,8.06
14.248,7.908
14.252,7.868
14.256,7.976
14.26,8.068
14.264,7.944
14.268,7.888
14.272,7.988
14.276,8.056
14.28,7.948
14.284,7.836
14.288,8.072
14.292,8.56
14.296,8.96
14.3,9.34
14.304,9.92
14.308,10.436
14.312,9.932
14.316,8.924
14.32,8.352
14.324,7.936
14.328,7.616
14.332,7.372
14.336,7.428
14.34,7.744
14.344,8.032
14.348,7.928
14.352,7.884
14.356,8.02
14.36,8.132
14.364,7.988
14.368,7.896
14.372,7.996
14.376,8.124
14.38,8.02
14.384,7.88
14.388,7.96
14.392,8.088
14.396,8.048
14.4,7.912
14.404,7.924
14.408,8.084
14.412,8.068
14.416,7.904
14.42,7.932
14.424,8.06
14.428,8.1
14.432,7.936
14.436,7.904
14.44,8.048
14.444,8.12
14.448,7.948
14.452,7.9
14.456,8.04
14.46,8.112
14.464,7.996
14.468,7.896
14.472,7.996
14.476,8.132
14.48,8.028
14.484,7.928
14.488,8.004
14.492,8.144
14.496,8.068
14.5,7.964
14.504,7.988
14.508,8.16
14.512,8.128
14.516,7.992
14.52,7.988
14.524,8.18
14.528,8.212
14.532,8.076
14.536,8.06
14.54,8.212
14.544,8.3
14.548,8.152
14.552,8.148
14.556,8.276
14.56,8.392
14.564,8.288
14.568,8.196
14.572,8.348
14.576,8.464
14.58,8.38
14.584,8.28
14.588,8.38
14.592,8.504
14.596,8.46
14.6,8.304
14.604,8.336
14.608,8.488
14.612,8.448
14.616,8.288
14.62,8.264
14.624,8.396
14.628,8.376
14.632,8.188
14.636,8.104
14.64,8.232
14.644,8.28
14.648,8.072
14.652,7.988
14.656,8.12
14.66,8.196
14.664,8.04
14.668,7.94
14.672,8.02
14.676,8.136
14.68,8.048
14.684,7.928
14.688,7.976
14.692,8.116
14.696,8.056
14.7,7.928
14.704,7.968
14.708,8.084
14.712,8.056
14.716,7.92
14.72,7.936
14.724,8.076
14.728,8.092
14.732,7.936
14.736,7.912
14.74,8.04
14.744,8.084
14.748,7.948
14.752,7.864
14.756,8.02
14.76,8.104
14.764,7.98
14.768,7.892
14.772,8.004
14.776,8.1
14.78,7.992
14.784,7.88
14.788,7.984
14.792,8.116
14.796,8.012
14.8,7.896
14.804,7.936
14.808,8.096
14.812,8.088
14.816,7.924
14.82,7.936
14.824,8.096
14.828,8.092
14.832,7.956
14.836,7.924
14.84,8.068
14.844,8.108
14.848,7.948
14.852,7.9
14.856,8.004
14.86,8.104
14.864,7.96
14.868,7.868
14.872,7.992
14.876,8.112
14.88,8.008
14.884,7.884
14.888,7.964
14.892,8.084
14.896,8.016
14.9,7.876
14.904,7.928
14.908,8.076
14.912,8.044
14.916,7.924
14.92,7.944
14.924,8.04
14.928,8.056
14.932,7.908
14.936,7.896
14.94,8.008
14.944,8.092
14.948,7.94
14.952,7.876
14.956,8.02
14.96,8.116
14.964,7.96
14.968,7.876
14.972,7.976
14.976,8.12
14.98,8.008
14.984,7.848
14.988,7.96
14.992,8.096
14.996,8.032
15,7.876
15.004,7.9
15.008,8.08
15.012,8.056
15.016,7.908
15.02,7.904
15.024,8.084
15.028,8.092
15.032,7.904
15.036,7.88
15.04,8.032
15.044,8.088
15.048,7.936
15.052,7.888
15.056,8.02
15.06,8.084
15.064,7.928
15.068,7.868
15.072,7.972
15.076,8.092
15.08,7.964
15.084,7.844
15.088,7.92
15.092,8.08
15.096,8.012
15.1,7.86
15.104,7.904
15.108,8.068
15.112,8.052
15.116,7.9
15.12,7.94
15.124,8.1
15.128,8.136
15.132,7.944
15.136,7.94
15.14,8.1
15.144,8.168
15.148,8.108
15.152,8.12
15.156,8.3
15.16,8.38
15.164,8.208
15.168,8.068
15.172,8.152
15.176,8.24
15.18,8.1
15.184,7.936
15.188,8.044
15.192,8.18
15.196,8.092
15.2,7.968
15.204,7.968
15.208,8.044
15.212,7.988
15.216,7.848
15.22,7.824
15.224,7.96
15.228,7.996
15.232,7.824
15.236,7.804
15.24,7.94
15.244,8.024
15.248,7.84
15.252,7.796
15.256,7.92
15.26,8.004
15.264,7.876
15.268,7.772
15.272,7.904
15.276,8.028
15.28,7.924
15.284,7.784
15.288,7.868
15.292,7.996
15.296,7.916
15.3,7.788
15.304,7.848
15.308,8.008
15.312,7.964
15.316,7.836
15.32,7.8
15.324,7.912
15.328,7.956
15.332,8.012
15.336,8.368
15.34,9.008
15.344,9.604
15.348,10.036
15.352,10.256
15.356,9.708
15.36,8.932
15.364,8.176
15.368,7.532
15.372,7.412
15.376,7.492
15.38,7.508
15.384,7.592
15.388,7.856
15.392,8.04
15.396,7.984
15.4,7.836
15.404,7.856
15.408,8.008
15.412,7.972
15.416,7.844
15.42,7.868
15.424,8.012
15.428,8.008
15.432,7.852
15.436,7.82
15.44,7.948
15.444,8.036
15.448,7.868
15.452,7.812
15.456,7.924
15.46,8.016
15.464,7.904
15.468,7.8
15.472,7.9
15.476,8.008
15.48,7.912
15.484,7.82
15.488,7.88
15.492,8.008
15.496,7.94
15.5,7.832
15.504,7.884
15.508,8.008
15.512,7.956
15.516,7.836
15.52,7.848
15.524,7.992
15.528,8.036
15.532,7.868
15.536,7.82
15.54,8.004
15.544,8.092
15.548,7.944
15.552,7.884
15.556,8.024
15.56,8.112
15.564,7.992
15.568,7.92
15.572,8.036
15.576,8.164
15.58,8.092
15.584,7.964
15.588,8.088
15.592,8.248
15.596,8.196
15.6,8.064
15.604,8.096
15.608,8.296
15.612,8.284
15.616,8.148
15.62,8.2
15.624,8.368
15.628,8.404
15.632,8.268
15.636,8.228
15.64,8.38
15.644,8.436
15.648,8.284
15.652,8.22
15.656,8.344
15.66,8.404
15.664,8.24
15.668,8.112
15.672,8.212
15.676,8.292
15.68,8.172
15.684,8.028
15.688,8.06
15.692,8.184
15.696,8.092
15.7,7.928
15.704,7.964
15.708,8.096
15.712,8.072
15.716,7.912
15.72,7.904
15.724,8.048
15.728,8.052
15.732,7.888
15.736,7.864
15.74,8.032
15.744,8.072
15.748,7.928
15.752,7.864
15.756,7.996
15.76,8.116
15.764,7.992
15.768,7.888
15.772,7.988
15.776,8.108
15.78,8.012
15.784,7.908
15.788,7.976
15.792,8.092
15.796,8.036
15.8,7.916
15.804,7.956
15.808,8.108
15.812,8.056
15.816,7.916
15.82,7.932
15.824,8.076
15.828,8.116
15.832,7.964
15.836,7.944
15.84,8.08
15.844,8.152
15.848,7.972
15.852,7.908
15.856,8.056
15.86,8.116
15.864,7.984
15.868,7.88
15.872,8.008
15.876,8.108
15.88,7.98
15.884,7.848
15.888,7.924
15.892,8.06
15.896,7.976
15.9,7.84
15.904,7.86
15.908,7.992
15.912,8.004
15.916,7.828
15.92,7.8
15.924,7.96
15.928,7.992
15.932,7.824
15.936,7.8
15.94,7.916
15.944,7.988
15.948,7.82
15.952,7.744
15.956,7.892
15.96,7.964
15.964,7.844
15.968,7.776
15.972,7.856
15.976,7.988
15.98,7.904
15.984,7.764
15.988,7.84
15.992,7.964
15.996,7.908
16,7.752
16.004,7.804
16.008,7.948
16.012,7.92
16.016,7.768
16.02,7.812
16.024,7.956
16.028,7.924
16.032,7.792
16.036,7.752
16.04,7.924
16.044,7.988
16.048,7.824
16.052,7.752
16.056,7.9
16.06,7.964
16.064,7.86
16.068,7.776
16.072,7.88
16.076,7.972
16.08,7.892
16.084,7.784
16.088,7.868
16.092,7.992
16.096,7.936
16.1,7.796
16.104,7.824
16.108,7.992
16.112,7.968
16.116,7.784
16.12,7.808
16.124,7.96
16.128,8.004
16.132,7.84
16.136,7.764
16.14,7.944
16.144,7.976
16.148,7.848
16.152,7.788
16.156,7.948
16.16,8.024
16.164,7.924
16.168,7.828
16.172,7.98
16.176,8.104
16.18,7.956
16.184,7.856
16.188,7.948
16.192,8.18
16.196,8.212
16.2,8.108
16.204,8.136
16.208,8.224
16.212,8.196
16.216,7.98
16.22,8.012
16.224,8.124
16.228,8.108
16.232,7.96
16.236,7.952
16.24,8.084
16.244,8.108
16.248,7.944
16.252,7.848
16.256,7.928
16.26,8.02
16.264,7.844
16.268,7.74
16.272,7.86
16.276,7.976
16.28,7.892
16.284,7.752
16.288,7.84
16.292,7.956
16.296,7.908
16.3,7.768
16.304,7.808
16.308,7.956
16.312,7.924
16.316,7.772
16.32,7.804
16.324,7.956
16.328,7.956
16.332,7.804
16.336,7.772
16.34,7.924
16.344,8
16.348,7.852
16.352,7.764
16.356,7.928
16.36,7.996
16.364,7.88
16.368,7.76
16.372,7.868
16.376,8.06
16.38,8.256
16.384,8.6
16.388,9.228
16.392,9.964
16.396,10.38
16.4,10.096
16.404,9.24
16.408,8.684
16.412,8.04
16.416,7.436
16.42,7.268
16.424,7.456
16.428,7.648
16.432,7.724
16.436,7.832
16.44,7.996
16.444,8.064
16.448,7.9
16.452,7.86
16.456,7.992
16.46,8.056
16.464,7.932
16.468,7.836
16.472,7.976
16.476,8.08
16.48,7.968
16.484,7.828
16.488,7.912
16.492,8.044
16.496,7.992
16.5,7.852
16.504,7.9
16.508,8.048
16.512,8.024
16.516,7.864
16.52,7.884
16.524,8.024
16.528,8.024
16.532,7.864
16.536,7.86
16.54,8.02
16.544,8.08
16.548,7.908
16.552,7.864
16.556,7.988
16.56,8.088
16.564,7.956
16.568,7.852
16.572,7.968
16.576,8.116
16.58,8.012
16.584,7.88
16.588,7.976
16.592,8.132
16.596,8.056
16.6,7.92
16.604,7.992
16.608,8.16
16.612,8.128
16.616,7.976
16.62,8.02
16.624,8.188
16.628,8.224
16.632,8.08
16.636,8.084
16.64,8.252
16.644,8.316
16.648,8.204
16.652,8.164
16.656,8.316
16.66,8.404
16.664,8.272
16.668,8.244
16.672,8.344
16.676,8.496
16.68,8.384
16.684,8.272
16.688,8.356
16.692,8.52
16.696,8.44
16.7,8.284
16.704,8.3
16.708,8.424
16.712,8.372
16.716,8.188
16.72,8.168
16.724,8.296
16.728,8.256
16.732,8.064
16.736,8.036
16.74,8.152
16.744,8.172
16.748,7.996
16.752,7.936
16.756,8.052
16.76,8.152
16.764,7.976
16.768,7.904
16.772,8.012
16.776,8.128
16.78,7.996
16.784,7.888
16.788,7.956
16.792,8.092
16.796,8.036
16.8,7.884
16.804,7.964
16.808,8.096
16.812,8.064
16.816,7.876
16.82,7.908
16.824,8.072
16.828,8.08
16.832,7.896
16.836,7.888
16.84,8.02
16.844,8.096
16.848,7.924
16.852,7.856
16.856,8.008
16.86,8.096
16.864,7.956
16.868,7.876
16.872,7.992
16.876,8.096
16.88,8
16.884,7.884
16.888,7.988
16.892,8.108
16.896,8.028
16.9,7.88
16.904,7.952
16.908,8.092
16.912,8.064
16.916,7.892
16.92,7.9
16.924,8.044
16.928,8.088
16.932,7.928
16.936,7.908
16.94,8.048
16.944,8.096
16.948,7.94
16.952,7.908
16.956,8.016
16.96,8.104
16.964,7.964
16.968,7.876
16.972,7.996
16.976,8.112
16.98,7.996
16.984,7.852
16.988,7.936
16.992,8.104
16.996,8.024
17,7.884
17.004,7.936
17.008,8.08
17.012,8.052
17.016,7.896
17.02,7.924
17.024,8.044
17.028,8.068
17.032,7.9
17.036,7.888
17.04,8.048
17.044,8.1
17.048,7.932
17.052,7.864
17.056,7.984
17.06,8.096
17.064,7.96
17.068,7.852
17.072,7.968
17.076,8.104
17.08,7.988
17.084,7.876
17.088,7.956
17.092,8.084
17.096,8.008
17.1,7.884
17.104,7.908
17.108,8.08
17.112,8.016
17.116,7.888
17.12,7.884
17.124,8.048
17.128,8.08
17.132,7.896
17.136,7.904
17.14,8.008
17.144,8.096
17.148,7.924
17.152,7.876
17.156,8.016
17.16,8.076
17.164,7.976
17.168,7.864
17.172,7.996
17.176,8.088
17.18,7.964
17.184,7.872
17.188,7.96
17.192,8.1
17.196,8.008
17.2,7.892
17.204,7.952
17.208,8.116
17.212,8.116
17.216,7.976
17.22,8.016
17.224,8.148
17.228,8.144
17.232,7.976
17.236,7.984
17.24,8.184
17.244,8.34
17.248,8.22
17.252,8.184
17.256,8.312
17.26,8.316
17.264,8.136
17.268,8.06
17.272,8.152
17.276,8.236
17.28,8.12
17.284,8.004
17.288,8.084
17.292,8.192
17.296,8.124
17.3,7.944
17.304,7.952
17.308,8.052
17.312,8.04
17.316,7.872
17.32,7.88
17.324,8.032
17.328,8.04
17.332,7.88
17.336,7.836
17.34,8.008
17.344,8.036
17.348,7.892
17.352,7.816
17.356,7.96
17.36,8.032
17.364,7.92
17.368,7.848
17.372,7.948
17.376,8.052
17.38,7.964
17.384,7.848
17.388,7.92
17.392,8.052
17.396,7.984
17.4,7.86
17.404,7.912
17.408,8.076
17.412,8.032
17.416,7.864
17.42,7.852
17.424,8.048
17.428,8.344
17.432,8.64
17.436,9.124
17.44,9.824
17.444,10.348
17.448,10.172
17.452,9.276
17.456,8.7
17.46,8.172
17.464,7.592
17.468,7.34
17.472,7.432
17.476,7.68
17.48,7.84
17.484,7.844
17.488,7.952
17.492,8.092
17.496,8.044
17.5,7.908
17.504,7.944
17.508,8.08
17.512,8.04
17.516,7.904
17.52,7.912
17.524,8.064
17.528,8.064
17.532,7.916
17.536,7.9
17.54,8.044
17.544,8.092
17.548,7.928
17.552,7.88
17.556,8.028
17.56,8.108
17.564,7.968
17.568,7.884
17.572,8.012
17.576,8.112
17.58,8.012
17.584,7.912
17.588,7.98
17.592,8.1
17.596,8.044
17.6,7.92
17.604,7.952
17.608,8.1
17.612,8.092
17.616,7.928
17.62,7.972
17.624,8.104
17.628,8.124
17.632,7.972
17.636,7.96
17.64,8.12
17.644,8.176
17.648,8.056
17.652,7.976
17.656,8.136
17.66,8.228
17.664,8.116
17.668,8.044
17.672,8.16
17.676,8.292
17.68,8.204
17.684,8.136
17.688,8.232
17.692,8.372
17.696,8.324
17.7,8.204
17.704,8.288
17.708,8.456
17.712,8.452
17.716,8.32
17.72,8.34
17.724,8.492
17.728,8.528
17.732,8.376
17.736,8.376
17.74,8.484
17.744,8.556
17.748,8.368
17.752,8.324
17.756,8.416
17.76,8.484
17.764,8.312
17.768,8.192
17.772,8.276
17.776,8.328
17.78,8.204
17.784,8.08
17.788,8.124
17.792,8.236
17.796,8.148
17.8,8.004
17.804,8.004
17.808,8.164
17.812,8.132
17.816,8
17.82,8.012
17.824,8.14
17.828,8.124
17.832,7.976
17.836,7.956
17.84,8.104
17.844,8.144
17.848,7.976
17.852,7.948
17.856,8.092
17.86,8.16
17.864,8.012
17.868,7.94
17.872,8.004
17.876,8.148
17.88,8.04
17.884,7.936
17.888,8.02
17.892,8.132
17.896,8.036
17.9,7.904
17.904,7.956
17.908,8.12
17.912,8.08
17.916,7.924
17.92,7.936
17.924,8.104
17.928,8.088
17.932,7.904
17.936,7.908
17.94,8.08
17.944,8.12
17.948,7.96
17.952,7.92
17.956,8.02
17.96,8.12
17.964,7.98
17.968,7.912
17.972,8.028
17.976,8.128
17.98,8.012
17.984,7.928
17.988,7.996
17.992,8.132
17.996,8.028
18,7.916
18.004,7.948
18.008,8.108
18.012,8.076
18.016,7.92
18.02,7.932
18.024,8.096
18.028,8.088
18.032,7.928
18.036,7.924
18.04,8.064
18.044,8.132
18.048,7.948
18.052,7.896
18.056,8.06
18.06,8.124
18.064,7.96
18.068,7.888
18.072,8.012
18.076,8.124
18.08,8.028
18.084,7.884
18.088,7.972
18.092,8.116
18.096,8.044
18.1,7.912
18.104,7.96
18.108,8.096
18.112,8.032
18.116,7.892
18.12,7.916
18.124,8.06
18.128,8.08
18.132,7.916
18.136,7.868
18.14,8.036
18.144,8.112
18.148,7.928
18.152,7.88
18.156,8.02
18.16,8.104
18.164,7.944
18.168,7.884
18.172,7.992
18.176,8.116
18.18,7.992
18.184,7.868
18.188,7.98
18.192,8.124
18.196,8.008
18.2,7.876
18.204,7.928
18.208,8.088
18.212,8.068
18.216,7.912
18.22,7.94
18.224,8.104
18.228,8.12
18.232,7.932
18.236,7.892
18.24,8.056
18.244,8.104
18.248,7.948
18.252,7.916
18.256,8.064
18.26,8.144
18.264,8.016
18.268,7.94
18.272,8.1
18.276,8.2
18.28,8.08
18.284,7.948
18.288,8.048
18.292,8.248
18.296,8.24
18.3,8.196
18.304,8.232
18.308,8.352
18.312,8.272
18.316,8.068
18.32,8.1
18.324,8.212
18.328,8.164
18.332,8.016
18.336,8.012
18.34,8.168
18.344,8.22
18.348,8.024
18.352,7.92
18.356,8.02
18.36,8.064
18.364,7.924
18.368,7.82
18.372,7.932
18.376,8.044
18.38,7.956
18.384,7.82
18.388,7.888
18.392,8.036
18.396,7.96
18.4,7.816
18.404,7.872
18.408,8.024
18.412,7.964
18.416,7.808
18.42,7.844
18.424,8.016
18.428,8.012
18.432,7.864
18.436,7.832
18.44,7.98
18.444,8.036
18.448,7.872
18.452,7.832
18.456,7.976
18.46,8.06
18.464,7.912
18.468,7.804
18.472,7.88
18.476,8.016
18.48,8.108
18.484,8.404
18.488,9.004
18.492,9.684
18.496,10.136
18.5,10.268
18.504,9.616
18.508,8.916
18.512,8.284
18.516,7.612
18.52,7.36
18.524,7.468
18.528,7.608
18.532,7.628
18.536,7.82
18.54,8.004
18.544,8.048
18.548,7.9
18.552,7.888
18.556,8.016
18.56,8.084
18.564,7.928
18.568,7.848
18.572,7.964
18.576,8.068
18.58,7.96
18.584,7.844
18.588,7.936
18.592,8.06
18.596,7.9
18.6,7.856
18.604,7.88
18.608,8.044
18.612,8.016
18.616,7.852
18.62,7.892
18.624,8.02
18.628,8.032
18.632,7.86
18.636,7.876
18.64,8.02
18.644,8.052
18.648,7.896
18.652,7.844
18.656,8
18.66,8.116
18.664,7.964
18.668,7.864
18.672,7.968
18.676,8.1
18.68,7.996
18.684,7.892
18.688,7.964
18.692,8.116
18.696,8.048
18.7,7.928
18.704,7.976
18.708,8.152
18.712,8.112
18.716,7.988
18.72,8.016
18.724,8.196
18.728,8.22
18.732,8.072
18.736,8.064
18.74,8.236
18.744,8.324
18.748,8.152
18.752,8.16
18.756,8.304
18.76,8.412
18.764,8.288
18.768,8.26
18.772,8.356
18.776,8.48
18.78,8.376
18.784,8.264
18.788,8.396
18.792,8.524
18.796,8.44
18.8,8.284
18.804,8.34
18.808,8.448
18.812,8.404
18.816,8.232
18.82,8.192
18.824,8.312
18.828,8.292
18.832,8.104
18.836,8.072
18.84,8.2
18.844,8.212
18.848,8.036
18.852,7.984
18.856,8.056
18.86,8.156
18.864,8
18.868,7.916
18.872,7.996
18.876,8.12
18.88,8
18.884,7.9
18.888,7.968
18.892,8.092
18.896,8.036
18.9,7.924
18.904,7.944
18.908,8.096
18.912,8.048
18.916,7.884
18.92,7.904
18.924,8.068
18.928,8.072
18.932,7.896
18.936,7.892
18.94,8.036
18.944,8.08
18.948,7.912
18.952,7.86
18.956,8
18.96,8.08
18.964,7.956
18.968,7.872
18.972,7.984
18.976,8.096
18.98,7.968
18.984,7.868
18.988,7.96
18.992,8.088
18.996,8.004
19,7.872
19.004,7.936
19.008,8.1
19.012,8.04
19.016,7.896
19.02,7.92
19.024,8.056
19.028,8.084
19.032,7.912
19.036,7.904
19.04,8.02
19.044,8.076
19.048,7.928
19.052,7.888
19.056,8
19.06,8.076
19.064,7.948
19.068,7.896
19.072,7.98
19.076,8.076
19.08,7.972
19.084,7.88
19.088,7.96
19.092,8.06
19.096,8.008
19.1,7.888
19.104,7.932
19.108,8.04
19.112,8.008
19.116,7.864
19.12,7.9
19.124,8.044
19.128,8.032
19.132,7.888
19.136,7.904
19.14,8.012
19.144,8.052
19.148,7.908
19.152,7.868
19.156,7.988
19.16,8.08
19.164,7.952
19.168,7.884
19.172,7.98
19.176,8.072
19.18,7.972
19.184,7.88
19.188,7.944
19.192,8.076
19.196,7.992
19.2,7.872
19.204,7.936
19.208,8.048
19.212,8.004
19.216,7.852
19.22,7.9
19.224,8.04
19.228,8.048
19.232,7.9
19.236,7.904
19.24,8.012
19.244,8.044
19.248,7.916
19.252,7.876
19.256,7.992
19.26,8.068
19.264,7.944
19.268,7.892
19.272,7.964
19.276,8.088
19.28,7.98
19.284,7.872
19.288,7.964
19.292,8.08
19.296,7.992
19.3,7.888
19.304,7.916
19.308,8.064
19.312,8.052
19.316,7.94
19.32,7.976
19.324,8.12
19.328,8.144
19.332,7.96
19.336,7.972
19.34,8.104
19.344,8.18
19.348,8.124
19.352,8.164
19.356,8.3
19.36,8.38
19.364,8.192
19.368,8.088
19.372,8.176
19.376,8.264
19.38,8.136
19.384,7.992
19.388,8.072
19.392,8.208
19.396,8.124
19.4,7.992
19.404,8.004
19.408,8.092
19.412,8.012
19.416,7.86
19.42,7.892
19.424,8.016
19.428,7.988
19.432,7.856
19.436,7.868
19.44,8
19.444,8.016
19.448,7.872
19.452,7.82
19.456,7.924
19.46,8.032
19.464,7.896
19.468,7.804
19.472,7.936
19.476,8.02
19.48,7.904
19.484,7.84
19.488,7.924
19.492,8.02
19.496,7.916
19.5,7.832
19.504,7.908
19.508,8.044
19.512,7.996
19.516,7.86
19.52,7.884
19.524,7.98
19.528,7.996
19.532,8.02
19.536,8.408
19.54,9.028
19.544,9.6
19.548,10.072
19.552,10.392
19.556,9.916
19.56,9.068
19.564,8.34
19.568,7.704
19.572,7.496
19.576,7.488
19.58,7.504
19.584,7.584
19.588,7.884
19.592,8.084
19.596,7.996
19.6,7.88
19.604,7.94
19.608,8.068
19.612,8.024
19.616,7.912
19.62,7.9
19.624,8.06
19.628,8.056
19.632,7.928
19.636,7.92
19.64,8.04
19.644,8.064
19.648,7.948
19.652,7.892
19.656,8.024
19.66,8.08
19.664,7.956
19.668,7.9
19.672,7.992
19.676,8.1
19.68,7.992
19.684,7.888
19.688,7.972
19.692,8.084
19.696,8.008
19.7,7.908
19.704,7.96
19.708,8.08
19.712,8.036
19.716,7.9
19.72,7.94
19.724,8.076
19.728,8.068
19.732,7.936
19.736,7.936
19.74,8.088
19.744,8.148
19.748,8.004
19.752,7.984
19.756,8.104
19.76,8.156
19.764,8.06
19.768,8.012
19.772,8.144
19.776,8.248
19.78,8.172
19.784,8.088
19.788,8.192
19.792,8.32
19.796,8.268
19.8,8.192
19.804,8.24
19.808,8.404
19.812,8.396
19.816,8.268
19.82,8.3
19.824,8.464
19.828,8.476
19.832,8.348
19.836,8.352
19.84,8.492
19.844,8.536
19.848,8.38
19.852,8.364
19.856,8.464
19.86,8.492
19.864,8.356
19.868,8.248
19.872,8.344
19.876,8.392
19.88,8.264
19.884,8.1
19.888,8.16
19.892,8.236
19.896,8.176
19.9,8
19.904,8.064
19.908,8.164
19.912,8.132
19.916,7.992
19.92,8.008
19.924,8.128
19.928,8.12
19.932,7.992
19.936,7.952
19.94,8.1
19.944,8.14
19.948,7.992
19.952,7.952
19.956,8.072
19.96,8.152
19.964,8.016
19.968,7.944
19.972,8.036
19.976,8.148
19.98,8.044
19.984,7.944
19.988,8.02
19.992,8.12
19.996,8.052
20,7.944
20.004,7.996
20.008,8.1
20.012,8.076
20.016,7.948
20.02,7.96
20.024,8.124
20.028,8.076
20.032,7.976
20.036,7.944
20.04,8.084
20.044,8.128
20.048,7.984
20.052,7.944
20.056,8.044
20.06,8.132
20.064,8
20.068,7.94
20.072,8.032
20.076,8.136
20.08,8.02
20.084,7.944
20.088,8.028
20.092,8.148
20.096,8.06
20.1,7.932
20.104,8
20.108,8.124
20.112,8.112
20.116,7.96
20.12,7.952
20.124,8.108
20.128,8.104
20.132,7.956
20.136,7.964
20.14,8.1
20.144,8.12
20.148,7.972
20.152,7.952
20.156,8.092
20.16,8.136
20.164,7.992
20.168,7.932
20.172,8.044
20.176,8.104
20.18,8.028
20.184,7.936
20.188,7.988
20.192,8.12
20.196,8.06
20.2,7.944
20.204,8
20.208,8.104
20.212,8.072
20.216,7.956
20.22,7.98
20.224,8.084
20.228,8.088
20.232,7.932
20.236,7.968
20.24,8.076
20.244,8.108
20.248,7.976
20.252,7.936
20.256,8.036
20.26,8.124
20.264,8.012
20.268,7.952
20.272,8.028
20.276,8.1
20.28,8.024
20.284,7.944
20.288,8.008
20.292,8.108
20.296,8.044
20.3,7.94
20.304,7.996
20.308,8.116
20.312,8.052
20.316,7.952
20.32,7.964
20.324,8.08
20.328,8.096
20.332,7.972
20.336,7.952
20.34,8.056
20.344,8.088
20.348,7.992
20.352,7.944
20.356,8.036
20.36,8.124
20.364,8.004
20.368,7.94
20.372,8.068
20.376,8.184
20.38,8.108
20.384,8
20.388,8.092
20.392,8.18
20.396,8.124
20.4,8.056
20.404,8.148
20.408,8.368
20.412,8.372
20.416,8.24
20.42,8.212
20.424,8.292
20.428,8.276
20.432,8.144
20.436,8.092
20.44,8.168
20.444,8.22
20.448,8.112
20.452,8.048
20.456,8.144
20.46,8.192
20.464,8.02
20.468,7.928
20.472,8.016
20.476,8.092
20.48,7.972
20.484,7.876
20.488,7.964
20.492,8.072
20.496,8
20.5,7.896
20.504,7.936
20.508,8.06
20.512,8.02
20.516,7.912
20.52,7.932
20.524,8.052
20.528,8.056
20.532,7.908
20.536,7.928
20.54,8.02
20.544,8.092
20.548,7.932
20.552,7.92
20.556,8.032
20.56,8.1
20.564,7.964
20.568,7.936
20.572,8.02
20.576,8.088
20.58,7.988
20.584,7.9
20.588,8.124
20.592,8.556
20.596,8.98
20.6,9.376
20.604,10.016
20.608,10.524
20.612,10.116
20.616,9.076
20.62,8.448
20.624,7.996
20.628,7.636
20.632,7.412
20.636,7.512
20.64,7.796
20.644,8.048
20.648,8.012
20.652,7.996
20.656,8.104
20.66,8.156
20.664,8.04
20.668,7.984
20.672,8.076
20.676,8.164
20.68,8.064
20.684,8.004
20.688,8.064
20.692,8.168
20.696,8.096
20.7,7.984
20.704,8.024
20.708,8.132
20.712,8.096
20.716,8
20.72,8.02
20.724,8.116
20.728,8.112
20.732,8
20.736,7.988
20.74,8.092
20.744,8.116
20.748,7.98
20.752,7.956
20.756,8.04
20.76,8.112
20.764,8.032
20.768,7.948
20.772,8.064
20.776,8.144
20.78,8.044
20.784,7.98
20.788,8.044
20.792,8.168
20.796,8.1
20.8,8.016
20.804,8.072
20.808,8.2
20.812,8.168
20.816,8.044
20.82,8.08
20.824,8.252
20.828,8.252
20.832,8.132
20.836,8.132
20.84,8.256
20.844,8.32
20.848,8.232
20.852,8.192
20.856,8.328
20.86,8.416
20.864,8.32
20.868,8.32
20.872,8.428
20.876,8.52
20.88,8.452
20.884,8.38
20.888,8.448
20.892,8.584
20.896,8.52
20.9,8.42
20.904,8.432
20.908,8.56
20.912,8.516
20.916,8.372
20.92,8.364
20.924,8.46
20.928,8.424
20.932,8.268
20.936,8.232
20.94,8.32
20.944,8.292
20.948,8.152
20.952,8.1
20.956,8.188
20.96,8.232
20.964,8.088
20.968,8.036
20.972,8.112
20.976,8.18
20.98,8.06
20.984,7.992
20.988,8.068
20.992,8.156
20.996,8.104
21,7.984
21.004,7.992
21.008,8.12
21.012,8.104
21.016,7.98
21.02,8.016
21.024,8.128
21.028,8.144
21.032,7.972
21.036,7.964
21.04,8.108
21.044,8.132
21.048,7.988
21.052,7.976
21.056,8.084
21.06,8.136
21.064,8.012
21.068,7.964
21.072,8.016
21.076,8.14
21.08,8.032
21.084,7.96
21.088,8.008
21.092,8.108
21.096,8.052
21.1,7.948
21.104,8
21.108,8.116
21.112,8.064
21.116,7.928
21.12,7.964
21.124,8.088
21.128,8.1
21.132,7.976
21.136,7.94
21.14,8.048
21.144,8.096
21.148,7.964
21.152,7.944
21.156,8.048
21.16,8.104
21.164,7.988
21.168,7.924
21.172,8.024
21.176,8.136
21.18,7.992
21.184,7.94
21.188,8.016
21.192,8.128
21.196,8.04
21.2,7.932
21.204,7.988
21.208,8.068
21.212,8.056
21.216,7.92
21.22,7.948
21.224,8.068
21.228,8.064
21.232,7.956
21.236,7.944
21.24,8.056
21.244,8.108
21.248,7.952
21.252,7.936
21.256,8.088
21.26,8.084
21.264,7.988
21.268,7.924
21.272,8.008
21.276,8.12
21.28,8.004
21.284,7.932
21.288,7.976
21.292,8.104
21.296,8.032
21.3,7.932
21.304,7.98
21.308,8.1
21.312,8.072
21.316,7.936
21.32,7.964
21.324,8.076
21.328,8.096
21.332,7.956
21.336,7.936
21.34,8.072
21.344,8.108
21.348,7.968
21.352,7.96
21.356,8.048
21.36,8.108
21.364,7.972
21.368,7.964
21.372,8.04
21.376,8.12
21.38,8.008
21.384,7.936
21.388,8.024
21.392,8.108
21.396,8.048
21.4,7.924
21.404,8
21.408,8.12
21.412,8.052
21.416,7.944
21.42,7.968
21.424,8.116
21.428,8.092
21.432,8.02
21.436,8.02
21.44,8.16
21.444,8.192
21.448,8.032
21.452,8.004
21.456,8.132
21.46,8.248
21.464,8.236
21.468,8.22
21.472,8.324
21.476,8.388
21.48,8.236
21.484,8.116
21.488,8.184
21.492,8.244
21.496,8.16
21.5,8.056
21.504,8.112
21.508,8.216
21.512,8.156
21.516,8.024
21.52,8
21.524,8.08
21.528,8.052
21.532,7.904
21.536,7.9
21.54,8.016
21.544,8.06
21.548,7.888
21.552,7.88
21.556,7.996
21.56,8.072
21.564,7.92
21.568,7.88
21.572,7.98
21.576,8.06
21.58,7.972
21.584,7.888
21.588,7.948
21.592,8.068
21.596,7.988
21.6,7.88
21.604,7.952
21.608,8.056
21.612,8.008
21.616,7.896
21.62,7.928
21.624,8.06
21.628,8.06
21.632,7.916
21.636,7.896
21.64,7.988
21.644,8.076
21.648,8.208
21.652,8.652
21.656,9.28
21.66,9.916
21.664,10.36
21.668,10.272
21.672,9.544
21.676,8.876
21.68,8.088
21.684,7.544
21.688,7.448
21.692,7.584
21.696,7.656
21.7,7.776
21.704,7.972
21.708,8.12
21.712,8.084
21.716,7.964
21.72,7.976
21.724,8.088
21.728,8.1
21.732,7.972
21.736,7.952
21.74,8.084
21.744,8.092
21.748,7.948
21.752,7.916
21.756,8.064
21.76,8.112
21.764,7.992
21.768,7.912
21.772,8.048
21.776,8.14
21.78,8.032
21.784,7.948
21.788,8
21.792,8.112
21.796,8.056
21.8,7.932
21.804,7.988
21.808,8.1
21.812,8.06
21.816,7.94
21.82,7.988
21.824,8.1
21.828,8.088
21.832,7.968
21.836,7.996
21.84,8.116
21.844,8.14
21.848,7.988
21.852,7.984
21.856,8.112
21.86,8.184
21.864,8.032
21.868,8.028
21.872,8.112
21.876,8.216
21.88,8.148
21.884,8.068
21.888,8.16
21.892,8.28
21.896,8.216
21.9,8.116
21.904,8.192
21.908,8.328
21.912,8.316
21.916,8.212
21.92,8.24
21.924,8.404
21.928,8.412
21.932,8.3
21.936,8.328
21.94,8.436
21.944,8.512
21.948,8.4
21.952,8.372
21.956,8.488
21.96,8.556
21.964,8.424
21.968,8.372
21.972,8.448
21.976,8.504
21.98,8.38
21.984,8.272
21.988,8.312
21.992,8.384
21.996,8.276
22,8.136
22.004,8.176
22.008,8.248
22.012,8.208
22.016,8.08
22.02,8.088
22.024,8.176
22.028,8.16
22.032,8.012
22.036,8.028
22.04,8.14
22.044,8.156
22.048,8
22.052,7.976
22.056,8.1
22.06,8.176
22.064,8.044
22.068,7.984
22.072,8.048
22.076,8.168
22.08,8.068
22.084,7.972
22.088,8.032
22.092,8.128
22.096,8.056
22.1,7.944
22.104,8.02
22.108,8.116
22.112,8.076
22.116,7.96
22.12,7.988
22.124,8.104
22.128,8.076
22.132,7.976
22.136,7.972
22.14,8.104
22.144,8.132
22.148,8
22.152,7.976
22.156,8.084
22.16,8.148
22.164,8.024
22.168,7.976
22.172,8.072
22.176,8.132
22.18,8.044
22.184,7.956
22.188,8.048
22.192,8.16
22.196,8.06
22.2,7.96
22.204,8.024
22.208,8.148
22.212,8.084
22.216,7.956
22.22,7.984
22.224,8.112
22.228,8.116
22.232,7.98
22.236,7.968
22.24,8.104
22.244,8.104
22.248,7.988
22.252,7.976
22.256,8.084
22.26,8.156
22.264,8.028
22.268,7.96
22.272,8.04
22.276,8.152
22.28,8.044
22.284,7.96
22.288,8.04
22.292,8.128
22.296,8.056
22.3,7.936
22.304,7.992
22.308,8.104
22.312,8.068
22.316,7.968
22.32,8.008
22.324,8.1
22.328,8.068
22.332,7.96
22.336,7.964
22.34,8.112
22.344,8.096
22.348,7.992
22.352,7.956
22.356,8.052
22.36,8.148
22.364,8
22.368,7.956
22.372,8.016
22.376,8.116
22.38,8.036
22.384,7.956
22.388,8.044
22.392,8.128
22.396,8.08
22.4,7.944
22.404,8.02
22.408,8.088
22.412,8.068
22.416,7.96
22.42,7.944
22.424,8.128
22.428,8.112
22.432,7.972
22.436,7.976
22.44,8.104
22.444,8.128
22.448,7.988
22.452,7.98
22.456,8.104
22.46,8.148
22.464,8.028
22.468,7.96
22.472,8.052
22.476,8.148
22.48,8.056
22.484,7.972
22.488,8.112
22.492,8.22
22.496,8.124
22.5,8.028
22.504,8.072
22.508,8.212
22.512,8.16
22.516,8.112
22.52,8.228
22.524,8.416
22.528,8.388
22.532,8.268
22.536,8.22
22.54,8.284
22.544,8.304
22.548,8.136
22.552,8.088
22.556,8.208
22.56,8.272
22.564,8.144
22.568,8.068
22.572,8.128
22.576,8.2
22.58,8.048
22.584,7.944
22.588,8.004
22.592,8.092
22.596,8.028
22.6,7.928
22.604,7.972
22.608,8.096
22.612,8.044
22.616,7.924
22.62,7.976
22.624,8.092
22.628,8.064
22.632,7.936
22.636,7.944
22.64,8.056
22.644,8.076
22.648,7.948
22.652,7.924
22.656,8.044
22.66,8.108
22.664,7.976
22.668,7.928
22.672,8.036
22.676,8.128
22.68,8.02
22.684,7.98
22.688,8.052
22.692,8.108
22.696,8.024
22.7,7.94
22.704,8.208
22.708,8.716
22.712,9.192
22.716,9.588
22.72,10.18
22.724,10.48
22.728,9.776
22.732,8.784
22.736,8.152
22.74,7.78
22.744,7.584
22.748,7.424
22.752,7.548
22.756,7.872
22.76,8.116
22.764,8.024
22.768,7.976
22.772,8.084
22.776,8.184
22.78,8.052
22.784,7.956
22.788,8.052
22.792,8.184
22.796,8.092
22.8,7.984
22.804,8.036
22.808,8.172
22.812,8.12
22.816,7.988
22.82,8.016
22.824,8.128
22.828,8.14
22.832,7.992
22.836,7.996
22.84,8.112
22.844,8.128
22.848,7.992
22.852,7.976
22.856,8.104
22.86,8.176
22.864,8.036
22.868,7.972
22.872,8.084
22.876,8.188
22.88,8.088
22.884,8
22.888,8.064
22.892,8.188
22.896,8.096
22.9,8.012
22.904,8.076
22.908,8.2
22.912,8.136
22.916,8.048
22.92,8.096
22.924,8.216
22.928,8.22
22.932,8.084
22.936,8.124
22.94,8.264
22.944,8.268
22.948,8.168
22.952,8.156
22.956,8.288
22.96,8.356
22.964,8.26
22.968,8.236
22.972,8.348
22.976,8.456
22.98,8.372
22.984,8.304
22.988,8.424
22.992,8.544
22.996,8.472
23,8.388
23.004,8.46
23.008,8.588
23.012,8.564
23.016,8.436
23.02,8.452
23.024,8.56
23.028,8.544
23.032,8.392
23.036,8.384
23.04,8.468
23.044,8.456
23.048,8.276
23.052,8.252
23.056,8.296
23.06,8.34
23.064,8.172
23.068,8.128
23.072,8.2
23.076,8.268
23.08,8.16
23.084,8.056
23.088,8.12
23.092,8.212
23.096,8.128
23.1,8.04
23.104,8.096
23.108,8.176
23.112,8.128
23.116,8.024
23.12,8.04
23.124,8.18
23.128,8.16
23.132,8.016
23.136,8.032
23.14,8.132
23.144,8.164
23.148,8.032
23.152,7.988
23.156,8.108
23.16,8.176
23.164,8.056
23.168,8
23.172,8.096
23.176,8.168
23.18,8.06
23.184,7.988
23.188,8.064
23.192,8.172
23.196,8.072
23.2,7.98
23.204,8.04
23.208,8.156
23.212,8.096
23.216,7.98
23.22,8.044
23.224,8.16
23.228,8.148
23.232,8.008
23.236,8.016
23.24,8.128
23.244,8.14
23.248,8.008
23.252,7.972
23.256,8.12
23.26,8.176
23.264,8.008
23.268,8
23.272,8.108
23.276,8.144
23.28,8.06
23.284,7.972
23.288,8.088
23.292,8.168
23.296,8.076
23.3,7.972
23.304,8.032
23.308,8.172
23.312,8.108
23.316,7.98
23.32,8
23.324,8.144
23.328,8.128
23.332,7.992
23.336,8
23.34,8.112
23.344,8.132
23.348,7.996
23.352,7.972
23.356,8.096
23.36,8.144
23.364,8.02
23.368,7.956
23.372,8.052
23.376,8.152
23.38,8.04
23.384,7.956
23.388,8.036
23.392,8.12
23.396,8.072
23.4,7.98
23.404,8.012
23.408,8.124
23.412,8.076
23.416,7.976
23.42,8.016
23.424,8.116
23.428,8.088
23.432,7.964
23.436,7.968
23.44,8.092
23.444,8.116
23.448,7.96
23.452,7.936
23.456,8.072
23.46,8.148
23.464,8.016
23.468,7.972
23.472,8.056
23.476,8.128
23.48,8.008
23.484,7.944
23.488,8.04
23.492,8.144
23.496,8.04
23.5,7.944
23.504,7.996
23.508,8.124
23.512,8.08
23.516,7.964
23.52,7.996
23.524,8.128
23.528,8.104
23.532,7.972
23.536,7.976
23.54,8.088
23.544,8.132
23.548,8.032
23.552,8.036
23.556,8.152
23.56,8.212
23.564,8.068
23.568,8.036
23.572,8.14
23.576,8.276
23.58,8.244
23.584,8.236
23.588,8.32
23.592,8.42
23.596,8.28
23.6,8.148
23.604,8.188
23.608,8.268
23.612,8.176
23.616,8.084
23.62,8.124
23.624,8.224
23.628,8.192
23.632,8.052
23.636,8.024
23.64,8.088
23.644,8.096
23.648,7.932
23.652,7.912
23.656,8.036
23.66,8.092
23.664,7.944
23.668,7.92
23.672,8.008
23.676,8.096
23.68,7.98
23.684,7.9
23.688,7.98
23.692,8.076
23.696,7.988
23.7,7.888
23.704,7.944
23.708,8.044
23.712,8.008
23.716,7.912
23.72,7.92
23.724,8.056
23.728,8.044
23.732,7.904
23.736,7.916
23.74,8.064
23.744,8.072
23.748,7.944
23.752,7.904
23.756,7.996
23.76,8.064
23.764,8.16
23.768,8.504
23.772,9.104
23.776,9.696
23.78,10.08
23.784,10.188
23.788,9.516
23.792,8.84
23.796,8.172
23.8,7.62
23.804,7.452
23.808,7.552
23.812,7.652
23.816,7.72
23.82,7.936
23.824,8.084
23.828,8.056
23.832,7.964
23.836,7.96
23.84,8.088
23.844,8.1
23.848,7.956
23.852,7.956
23.856,8.048
23.86,8.096
23.864,7.96
23.868,7.928
23.872,8.036
23.876,8.128
23.88,8.016
23.884,7.912
23.888,8.004
23.892,8.116
23.896,8.004
23.9,7.928
23.904,7.996
23.908,8.092
23.912,8.04
23.916,7.932
23.92,7.968
23.924,8.056
23.928,8.06
23.932,7.908
23.936,7.956
23.94,8.06
23.944,8.1
23.948,7.952
23.952,7.932
23.956,8.028
23.96,8.104
23.964,8.012
23.968,7.94
23.972,8.06
23.976,8.152
23.98,8.06
23.984,8
23.988,8.088
23.992,8.192
23.996,8.108
24,8.044
24.004,8.112
24.008,8.248
24.012,8.192
24.016,8.092
24.02,8.148
24.024,8.288
24.028,8.308
24.032,8.192
24.036,8.216
24.04,8.348
24.044,8.392
24.048,8.3
24.052,8.3
24.056,8.392
24.06,8.484
24.064,8.368
24.068,8.328
24.072,8.452
24.076,8.508
24.08,8.376
24.084,8.304
24.088,8.364
24.092,8.464
24.096,8.328
24.1,8.212
24.104,8.252
24.108,8.32
24.112,8.232
24.116,8.096
24.12,8.084
24.124,8.164
24.128,8.148
24.132,8.02
24.136,8.012
24.14,8.124
24.144,8.096
24.148,7.976
24.152,7.948
24.156,8.068
24.16,8.104
24.164,7.96
24.168,7.936
24.172,8.02
24.176,8.092
24.18,7.976
24.184,7.904
24.188,7.988
24.192,8.076
24.196,7.996
24.2,7.92
24.204,7.976
24.208,8.052
24.212,8.02
24.216,7.908
24.22,7.944
24.224,8.076
24.228,8.036
24.232,7.928
24.236,7.904
24.24,8.052
24.244,8.056
24.248,7.92
24.252,7.9
24.256,8.004
24.26,8.076
24.264,7.96
24.268,7.896
24.272,8.008
24.276,8.084
24.28,7.976
24.284,7.924
24.288,7.976
24.292,8.068
24.296,7.988
24.3,7.916
24.304,7.964
24.308,8.072
24.312,8.016
24.316,7.904
24.32,7.944
24.324,8.04
24.328,8.044
24.332,7.904
24.336,7.932
24.34,8.02
24.344,8.072
24.348,7.924
24.352,7.892
24.356,8.028
24.36,8.056
24.364,7.944
24.368,7.852
24.372,8
24.376,8.064
24.38,7.924
24.384,7.856
24.388,7.952
24.392,8.072
24.396,7.968
24.4,7.856
24.404,7.932
24.408,8.044
24.412,8.004
24.416,7.888
24.42,7.924
24.424,8.052
24.428,8.028
24.432,7.872
24.436,7.924
24.44,8.02
24.444,8.044
24.448,7.9
24.452,7.88
24.456,8.008
24.46,8.056
24.464,7.924
24.468,7.868
24.472,7.988
24.476,8.064
24.48,7.932
24.484,7.848
24.488,7.96
24.492,8.048
24.496,7.96
24.5,7.848
24.504,7.952
24.508,8.052
24.512,7.988
24.516,7.864
24.52,7.916
24.524,8.056
24.528,8.004
24.532,7.868
24.536,7.892
24.54,8.02
24.544,8.032
24.548,7.896
24.552,7.864
24.556,7.992
24.56,8.052
24.564,7.896
24.568,7.86
24.572,7.956
24.576,8.044
24.58,7.928
24.584,7.856
24.588,7.964
24.592,8.08
24.596,7.952
24.6,7.86
24.604,7.964
24.608,8.136
24.612,8.076
24.616,7.924
24.62,7.964
24.624,8.124
24.628,8.076
24.632,7.972
24.636,8.048
24.64,8.268
24.644,8.344
24.648,8.172
24.652,8.14
24.656,8.216
24.66,8.256
24.664,8.068
24.668,7.984
24.672,8.128
24.676,8.228
24.68,8.068
24.684,7.956
24.688,8.056
24.692,8.168
24.696,7.992
24.7,7.844
24.704,7.904
24.708,8.036
24.712,7.956
24.716,7.824
24.72,7.888
24.724,8.032
24.728,7.984
24.732,7.808
24.736,7.856
24.74,7.996
24.744,7.984
24.748,7.836
24.752,7.836
24.756,7.98
24.76,8.044
24.764,7.844
24.768,7.82
24.772,7.952
24.776,8.032
24.78,7.916
24.784,7.84
24.788,7.952
24.792,8.084
24.796,7.948
24.8,7.852
24.804,7.944
24.808,8.08
24.812,7.968
24.816,7.804
24.82,7.896
24.824,8.324
24.828,8.732
24.832,9.072
24.836,9.628
24.84,10.212
24.844,10.18
24.848,9.16
24.852,8.512
24.856,8.052
24.86,7.688
24.864,7.364
24.868,7.364
24.872,7.628
24.876,7.96
24.88,7.944
24.884,7.856
24.888,7.98
24.892,8.128
24.896,8
24.9,7.892
24.904,7.976
24.908,8.088
24.912,8.028
24.916,7.876
24.92,7.924
24.924,8.044
24.928,8.044
24.932,7.9
24.936,7.928
24.94,8.036
24.944,8.06
24.948,7.916
24.952,7.904
24.956,8.024
24.96,8.072
24.964,7.928
24.968,7.872
24.972,8.02
24.976,8.12
24.98,7.952
24.984,7.848
24.988,7.968
24.992,8.104
24.996,7.996
25,7.876
25.004,7.952
25.008,8.092
25.012,8.016
25.016,7.876
25.02,7.964
25.024,8.104
25.028,8.068
25.032,7.944
25.036,7.96
25.04,8.108
25.044,8.156
25.048,7.992
25.052,7.956
25.056,8.104
25.06,8.22
25.064,8.06
25.068,8.04
25.072,8.164
25.076,8.248
25.08,8.152
25.084,8.084
25.088,8.224
25.092,8.344
25.096,8.232
25.1,8.156
25.104,8.276
25.108,8.42
25.112,8.352
25.116,8.256
25.12,8.312
25.124,8.472
25.128,8.456
25.132,8.3
25.136,8.312
25.14,8.424
25.144,8.436
25.148,8.272
25.152,8.256
25.156,8.34
25.16,8.364
25.164,8.192
25.168,8.096
25.172,8.216
25.176,8.272
25.18,8.08
25.184,7.976
25.188,8.076
25.192,8.184
25.196,8.048
25.2,7.928
25.204,8.004
25.208,8.116
25.212,8.02
25.216,7.904
25.22,7.944
25.224,8.092
25.228,8.04
25.232,7.912
25.236,7.916
25.24,8.06
25.244,8.028
25.248,7.888
25.252,7.872
25.256,8.032
25.26,8.06
25.264,7.912
25.268,7.848
25.272,7.972
25.276,8.084
25.28,7.936
25.284,7.864
25.288,7.956
25.292,8.08
25.296,7.948
25.3,7.848
25.304,7.94
25.308,8.068
25.312,7.996
25.316,7.872
25.32,7.912
25.324,8.044
25.328,8.02
25.332,7.872
25.336,7.876
25.34,8.024
25.344,8.06
25.348,7.908
25.352,7.884
25.356,8.032
25.36,8.092
25.364,7.952
25.368,7.92
25.372,8.004
25.376,8.108
25.38,7.948
25.384,7.908
25.388,7.996
25.392,8.12
25.396,7.956
25.4,7.876
25.404,7.932
25.408,8.06
25.412,7.98
25.416,7.888
25.42,7.936
25.424,8.056
25.428,8.04
25.432,7.908
25.436,7.892
25.44,8.052
25.444,8.072
25.448,7.904
25.452,7.884
25.456,8.048
25.46,8.096
25.464,7.92
25.468,7.88
25.472,8.02
25.476,8.112
25.48,7.964
25.484,7.896
25.488,7.988
25.492,8.108
25.496,7.988
25.5,7.88
25.504,7.944
25.508,8.056
25.512,7.964
25.516,7.884
25.52,7.924
25.524,8.052
25.528,8.012
25.532,7.88
25.536,7.872
25.54,8.032
25.544,8.06
25.548,7.884
25.552,7.876
25.556,7.996
25.56,8.072
25.564,7.872
25.568,7.852
25.572,7.96
25.576,8.04
25.58,7.884
25.584,7.824
25.588,7.936
25.592,8.04
25.596,7.928
25.6,7.84
25.604,7.916
25.608,8.056
25.612,7.944
25.616,7.832
25.62,7.876
25.624,8.04
25.628,8.008
25.632,7.864
25.636,7.872
25.64,7.992
25.644,8.008
25.648,7.868
25.652,7.868
25.656,8.008
25.66,8.08
25.664,7.94
25.668,7.904
25.672,8.028
25.676,8.104
25.68,7.952
25.684,7.888
25.688,8.1
25.692,8.316
25.696,8.212
25.7,8.112
25.704,8.192
25.708,8.268
25.712,8.136
25.716,8.008
25.72,8.02
25.724,8.12
25.728,8.108
25.732,7.972
25.736,8
25.74,8.108
25.744,8.1
25.748,7.904
25.752,7.832
25.756,7.948
25.76,7.984
25.764,7.816
25.768,7.784
25.772,7.904
25.776,8.036
25.78,7.868
25.784,7.784
25.788,7.876
25.792,7.972
25.796,7.86
25.8,7.788
25.804,7.868
25.808,7.98
25.812,7.876
25.816,7.768
25.82,7.836
25.824,7.964
25.828,7.932
25.832,7.804
25.836,7.828
25.84,7.972
25.844,7.988
25.848,7.816
25.852,7.804
25.856,7.944
25.86,7.988
25.864,7.804
25.868,7.724
25.872,7.896
25.876,8.236
25.88,8.544
25.884,8.948
25.888,9.664
25.892,10.328
25.896,10.172
25.9,9.208
25.904,8.608
25.908,8.1
25.912,7.572
25.916,7.244
25.92,7.316
25.924,7.644
25.928,7.844
25.932,7.812
25.936,7.86
25.94,7.98
25.944,8.024
25.948,7.84
25.952,7.812
25.956,7.964
25.96,8.016
25.964,7.848
25.968,7.816
25.972,7.916
25.976,8.044
25.98,7.848
25.984,7.764
25.988,7.912
25.992,8
25.996,7.88
26,7.792
26.004,7.86
26.008,8.012
26.012,7.932
26.016,7.804
26.02,7.868
26.024,8.012
26.028,7.952
26.032,7.82
26.036,7.852
26.04,7.992
26.044,7.98
26.048,7.852
26.052,7.836
26.056,7.972
26.06,8.036
26.064,7.868
26.068,7.84
26.072,7.964
26.076,8.072
26.08,7.944
26.084,7.88
26.088,7.964
26.092,8.092
26.096,7.992
26.1,7.912
26.104,7.996
26.108,8.152
26.112,8.048
26.116,7.944
26.12,8.016
26.124,8.172
26.128,8.164
26.132,8.04
26.136,8.092
26.14,8.248
26.144,8.288
26.148,8.12
26.152,8.144
26.156,8.268
26.16,8.372
26.164,8.216
26.168,8.168
26.172,8.336
26.176,8.448
26.18,8.288
26.184,8.228
26.188,8.368
26.192,8.464
26.196,8.324
26.2,8.22
26.204,8.308
26.208,8.412
26.212,8.288
26.216,8.132
26.22,8.152
26.224,8.268
26.228,8.204
26.232,8.028
26.236,8.024
26.24,8.144
26.244,8.144
26.248,7.94
26.252,7.924
26.256,8.06
26.26,8.096
26.264,7.936
26.268,7.88
26.272,8.008
26.276,8.108
26.28,7.944
26.284,7.856
26.288,7.98
26.292,8.084
26.296,7.976
26.3,7.86
26.304,7.944
26.308,8.068
26.312,7.98
26.316,7.856
26.32,7.916
26.324,8.04
26.328,7.988
26.332,7.86
26.336,7.904
26.34,8.056
26.344,8.052
26.348,7.888
26.352,7.848
26.356,8.024
26.36,8.084
26.364,7.92
26.368,7.852
26.372,8
26.376,8.112
26.38,7.956
26.384,7.868
26.388,7.98
26.392,8.084
26.396,7.96
26.4,7.872
26.404,7.96
26.408,8.104
26.412,8.008
26.416,7.876
26.42,7.944
26.424,8.072
26.428,8.044
26.432,7.9
26.436,7.932
26.44,8.04
26.444,8.064
26.448,7.912
26.452,7.912
26.456,8.032
26.46,8.068
26.464,7.912
26.468,7.896
26.472,8.016
26.476,8.084
26.48,7.936
26.484,7.852
26.488,7.992
26.492,8.096
26.496,7.964
26.5,7.872
26.504,7.964
26.508,8.096
26.512,7.988
26.516,7.848
26.52,7.924
26.524,8.06
26.528,8.032
26.532,7.896
26.536,7.904
26.54,8.04
26.544,8.056
26.548,7.896
26.552,7.868
26.556,8.004
26.56,8.06
26.564,7.892
26.568,7.876
26.572,7.98
26.576,8.064
26.58,7.94
26.584,7.864
26.588,7.964
26.592,8.092
26.596,7.964
26.6,7.86
26.604,7.932
26.608,8.072
26.612,7.948
26.616,7.84
26.62,7.916
26.624,8.056
26.628,8.004
26.632,7.86
26.636,7.884
26.64,8.028
26.644,8.036
26.648,7.88
26.652,7.876
26.656,7.988
26.66,8.06
26.664,7.904
26.668,7.848
26.672,7.972
26.676,8.072
26.68,7.908
26.684,7.852
26.688,7.964
26.692,8.08
26.696,7.94
26.7,7.832
26.704,7.952
26.708,8.036
26.712,7.996
26.716,7.908
26.72,7.996
26.724,8.108
26.728,8.092
26.732,7.9
26.736,7.96
26.74,8.14
26.744,8.236
26.748,8.164
26.752,8.168
26.756,8.252
26.76,8.236
26.764,8.072
26.768,8.024
26.772,8.14
26.776,8.172
26.78,8.036
26.784,7.944
26.788,8.08
26.792,8.196
26.796,8.052
26.8,7.872
26.804,7.952
26.808,8.024
26.812,7.952
26.816,7.812
26.82,7.88
26.824,7.988
26.828,7.968
26.832,7.824
26.836,7.864
26.84,8
26.844,7.992
26.848,7.824
26.852,7.828
26.856,7.96
26.86,8.032
26.864,7.832
26.868,7.796
26.872,7.928
26.876,8.032
26.88,7.9
26.884,7.824
26.888,7.924
26.892,8.044
26.896,7.92
26.9,7.832
26.904,7.928
26.908,8.052
26.912,7.924
26.916,7.8
26.92,7.828
26.924,8.06
26.928,8.344
26.932,8.676
26.936,9.252
26.94,10.044
26.944,10.596
26.948,10.196
26.952,9.272
26.956,8.716
26.96,8.096
26.964,7.528
26.968,7.368
26.972,7.552
26.976,7.792
26.98,7.856
26.984,7.876
26.988,8.004
26.992,8.108
26.996,7.976
27,7.856
27.004,7.948
27.008,8.072
27.012,7.984
27.016,7.836
27.02,7.9
27.024,8.032
27.028,7.996
27.032,7.852
27.036,7.86
27.04,8.012
27.044,8.012
27.048,7.872
27.052,7.868
27.056,7.992
27.06,8.048
27.064,7.888
27.068,7.832
27.072,7.956
27.076,8.06
27.08,7.924
27.084,7.848
27.088,7.96
27.092,8.076
27.096,7.956
27.1,7.848
27.104,7.948
27.108,8.068
27.112,7.98
27.116,7.868
27.12,7.944
27.124,8.076
27.128,8.04
27.132,7.888
27.136,7.924
27.14,8.068
27.144,8.096
27.148,7.956
27.152,7.936
27.156,8.088
27.16,8.172
27.164,8.024
27.168,7.988
27.172,8.112
27.176,8.232
27.18,8.112
27.184,8.048
27.188,8.188
27.192,8.32
27.196,8.204
27.2,8.116
27.204,8.26
27.208,8.38
27.212,8.284
27.216,8.2
27.22,8.284
27.224,8.432
27.228,8.42
27.232,8.252
27.236,8.312
27.24,8.432
27.244,8.424
27.248,8.284
27.252,8.268
27.256,8.344
27.26,8.384
27.264,8.196
27.268,8.152
27.272,8.244
27.276,8.3
27.28,8.1
27.284,7.988
27.288,8.092
27.292,8.204
27.296,8.044
27.3,7.924
27.304,8
27.308,8.132
27.312,8.048
27.316,7.924
27.32,7.952
27.324,8.104
27.328,8.06
27.332,7.932
27.336,7.928
27.34,8.052
27.344,8.064
27.348,7.916
27.352,7.924
27.356,8.052
27.36,8.064
27.364,7.924
27.368,7.888
27.372,8
27.376,8.088
27.38,7.956
27.384,7.876
27.388,7.976
27.392,8.096
27.396,7.972
27.4,7.892
27.404,7.972
27.408,8.088
27.412,7.988
27.416,7.868
27.42,7.956
27.424,8.088
27.428,8.028
27.432,7.868
27.436,7.896
27.44,8.072
27.444,8.04
27.448,7.916
27.452,7.9
27.456,8.044
27.46,8.08
27.464,7.928
27.468,7.88
27.472,8.008
27.476,8.108
27.48,7.948
27.484,7.884
27.488,8.012
27.492,8.104
27.496,7.976
27.5,7.868
27.504,7.964
27.508,8.08
27.512,7.98
27.516,7.88
27.52,7.944
27.524,8.068
27.528,8.044
27.532,7.888
27.536,7.924
27.54,8.044
27.544,8.076
27.548,7.888
27.552,7.916
27.556,8.036
27.56,8.092
27.564,7.912
27.568,7.884
27.572,8.012
27.576,8.084
27.58,7.936
27.584,7.864
27.588,8
27.592,8.108
27.596,7.976
27.6,7.852
27.604,7.956
27.608,8.088
27.612,7.972
27.616,7.856
27.62,7.932
27.624,8.06
27.628,8.032
27.632,7.876
27.636,7.904
27.64,8.056
27.644,8.036
27.648,7.896
27.652,7.872
27.656,8.032
27.66,8.096
27.664,7.92
27.668,7.884
27.672,8.016
27.676,8.096
27.68,7.956
27.684,7.884
27.688,7.996
27.692,8.124
27.696,7.972
27.7,7.896
27.704,7.996
27.708,8.116
27.712,8.024
27.716,7.876
27.72,7.96
27.724,8.104
27.728,8.056
27.732,7.9
27.736,7.936
27.74,8.072
27.744,8.088
27.748,7.904
27.752,7.916
27.756,8.068
27.76,8.136
27.764,7.996
27.768,8.004
27.772,8.12
27.776,8.204
27.78,8.028
27.784,7.984
27.788,8.14
27.792,8.332
27.796,8.276
27.8,8.192
27.804,8.256
27.808,8.336
27.812,8.212
27.816,8.076
27.82,8.116
27.824,8.2
27.828,8.16
27.832,8.04
27.836,8.072
27.84,8.196
27.844,8.148
27.848,7.968
27.852,7.932
27.856,8.064
27.86,8.06
27.864,7.892
27.868,7.856
27.872,7.996
27.876,8.076
27.88,7.916
27.884,7.832
27.888,7.964
27.892,8.064
27.896,7.92
27.9,7.84
27.904,7.924
27.908,8.064
27.912,7.972
27.916,7.844
27.92,7.916
27.924,8.04
27.928,7.98
27.932,7.848
27.936,7.884
27.94,8.008
27.944,8.036
27.948,7.864
27.952,7.872
27.956,8.008
27.96,8.052
27.964,7.864
27.968,7.8
27.972,8.064
27.976,8.516
27.98,8.884
27.984,9.392
27.988,10.176
27.992,10.728
27.996,10.116
28,9.092
28.004,8.504
28.008,7.984
28.012,7.58
28.016,7.384
28.02,7.548
28.024,7.904
28.028,8.04
28.032,7.92
28.036,7.944
28.04,8.076
28.044,8.076
28.048,7.928
28.052,7.904
28.056,8.024
28.06,8.064
28.064,7.9
28.068,7.9
28.072,8.024
28.076,8.1
28.08,7.924
28.084,7.872
28.088,7.988
28.092,8.084
28.096,7.972
28.1,7.868
28.104,7.968
28.108,8.092
28.112,8.008
28.116,7.864
28.12,7.952
28.124,8.06
28.128,8.016
28.132,7.9
28.136,7.904
28.14,8.06
28.144,8.048
28.148,7.884
28.152,7.884
28.156,8.036
28.16,8.096
28.164,7.908
28.168,7.908
28.172,8.044
28.176,8.136
28.18,7.98
28.184,7.916
28.188,8.048
28.192,8.16
28.196,8.036
28.2,7.952
28.204,8.068
28.208,8.204
28.212,8.128
28.216,8.02
28.22,8.084
28.224,8.264
28.228,8.24
28.232,8.104
28.236,8.16
28.24,8.324
28.244,8.336
28.248,8.196
28.252,8.204
28.256,8.376
28.26,8.432
28.264,8.288
28.268,8.272
28.272,8.412
28.276,8.504
28.28,8.36
28.284,8.308
28.288,8.42
28.292,8.52
28.296,8.348
28.3,8.264
28.304,8.348
28.308,8.428
28.312,8.316
28.316,8.148
28.32,8.192
28.324,8.3
28.328,8.216
28.332,8.048
28.336,8.052
28.34,8.172
28.344,8.164
28.348,7.992
28.352,7.996
28.356,8.116
28.36,8.148
28.364,7.972
28.368,7.94
28.372,8.08
28.376,8.148
28.38,7.992
28.384,7.912
28.388,8.036
28.392,8.16
28.396,8.048
28.4,7.92
28.404,8.008
28.408,8.168
28.412,8.064
28.416,7.928
28.42,8
28.424,8.112
28.428,8.08
28.432,7.932
28.436,7.968
28.44,8.104
28.444,8.096
28.448,7.924
28.452,7.94
28.456,8.064
28.46,8.116
28.464,7.96
28.468,7.924
28.472,8.048
28.476,8.14
28.48,7.984
28.484,7.912
28.488,8.016
28.492,8.156
28.496,8.016
28.5,7.908
28.504,8.032
28.508,8.156
28.512,8.024
28.516,7.908
28.52,8.008
28.524,8.14
28.528,8.072
28.532,7.936
28.536,7.932
28.54,8.088
28.544,8.12
28.548,7.936
28.552,7.932
28.556,8.068
28.56,8.1
28.564,7.96
28.568,7.904
28.572,8.048
28.576,8.116
28.58,7.972
28.584,7.888
28.588,8.024
28.592,8.152
28.596,7.988
28.6,7.88
28.604,7.992
28.608,8.132
28.612,8.032
28.616,7.896
28.62,7.98
28.624,8.096
28.628,8.052
28.632,7.904
28.636,7.948
28.64,8.088
28.644,8.068
28.648,7.912
28.652,7.896
28.656,8.068
28.66,8.116
28.664,7.916
28.668,7.892
28.672,8.048
28.676,8.112
28.68,7.952
28.684,7.864
28.688,8.004
28.692,8.104
28.696,7.98
28.7,7.872
28.704,7.992
28.708,8.108
28.712,8.012
28.716,7.876
28.72,7.952
28.724,8.108
28.728,8.032
28.732,7.88
28.736,7.908
28.74,8.064
28.744,8.076
28.748,7.904
28.752,7.892
28.756,8.048
28.76,8.092
28.764,7.912
28.768,7.896
28.772,8.036
28.776,8.116
28.78,7.944
28.784,7.908
28.788,8.024
28.792,8.132
28.796,7.98
28.8,7.888
28.804,8
28.808,8.144
28.812,8.06
28.816,7.948
28.82,8.04
28.824,8.18
28.828,8.14
28.832,7.968
28.836,8.004
28.84,8.22
28.844,8.312
28.848,8.192
28.852,8.18
28.856,8.316
28.86,8.296
28.864,8.08
28.868,8.06
28.872,8.188
28.876,8.2
28.88,8.028
28.884,8
28.888,8.136
28.892,8.224
28.896,8.044
28.9,7.912
28.904,7.956
28.908,8.092
28.912,7.972
28.916,7.84
28.92,7.924
28.924,8.04
28.928,7.976
28.932,7.836
28.936,7.892
28.94,8.032
28.944,8.008
28.948,7.832
28.952,7.864
28.956,8.02
28.96,8.056
28.964,7.876
28.968,7.832
28.972,7.98
28.976,8.08
28.98,7.9
28.984,7.856
28.988,7.976
28.992,8.088
28.996,7.932
29,7.864
29.004,7.968
29.008,8.112
29.012,7.956
29.016,7.812
29.02,7.944
29.024,8.284
29.028,8.66
29.032,9.016
29.036,9.636
29.04,10.364
29.044,10.536
29.048,9.576
29.052,8.764
29.056,8.248
29.06,7.824
29.064,7.48
29.068,7.448
29.072,7.732
29.076,8.036
29.08,8.012
29.084,7.972
29.088,8.092
29.092,8.18
29.096,8.036
29.1,7.932
29.104,8.032
29.108,8.172
29.112,8.052
29.116,7.916
29.12,8.016
29.124,8.16
29.128,8.076
29.132,7.94
29.136,7.964
29.14,8.092
29.144,8.108
29.148,7.936
29.152,7.964
29.156,8.092
29.16,8.14
29.164,7.948
29.168,7.92
29.172,8.068
29.176,8.156
29.18,7.976
29.184,7.916
29.188,8.036
29.192,8.16
29.196,8.032
29.2,7.924
29.204,8.016
29.208,8.148
29.212,8.056
29.216,7.956
29.22,8.004
29.224,8.156
29.228,8.12
29.232,7.964
29.236,8.032
29.24,8.168
29.244,8.172
29.248,8.02
29.252,8.012
29.256,8.2
29.26,8.256
29.264,8.08
29.268,8.072
29.272,8.228
29.276,8.32
29.28,8.192
29.284,8.148
29.288,8.304
29.292,8.416
29.296,8.292
29.3,8.236
29.304,8.356
29.308,8.496
29.312,8.4
29.316,8.3
29.32,8.392
29.324,8.54
29.328,8.488
29.332,8.328
29.336,8.384
29.34,8.532
29.344,8.516
29.348,8.348
29.352,8.316
29.356,8.424
29.36,8.44
29.364,8.252
29.368,8.188
29.372,8.284
29.376,8.336
29.38,8.16
29.384,8.072
29.388,8.184
29.392,8.252
29.396,8.084
29.4,7.98
29.404,8.096
29.408,8.216
29.412,8.092
29.416,7.964
29.42,8.02
29.424,8.172
29.428,8.104
29.432,7.96
29.436,8.004
29.44,8.136
29.444,8.116
29.448,7.96
29.452,7.98
29.456,8.136
29.46,8.148
29.464,7.964
29.468,7.952
29.472,8.1
29.476,8.164
29.48,7.972
29.484,7.928
29.488,8.06
29.492,8.16
29.496,8.016
29.5,7.932
29.504,8.008
29.508,8.144
29.512,8.052
29.516,7.928
29.52,8.016
29.524,8.128
29.528,8.088
29.532,7.928
29.536,7.984
29.54,8.12
29.544,8.12
29.548,7.96
29.552,7.952
29.556,8.116
29.56,8.16
29.564,7.984
29.568,7.964
29.572,8.088
29.576,8.18
29.58,7.992
29.584,7.944
29.588,8.056
29.592,8.172
29.596,8.012
29.6,7.928
29.604,8.048
29.608,8.176
29.612,8.028
29.616,7.924
29.62,8
29.624,8.14
29.628,8.092
29.632,7.936
29.636,7.968
29.64,8.108
29.644,8.124
29.648,7.94
29.652,7.944
29.656,8.084
29.66,8.104
29.664,7.956
29.668,7.936
29.672,8.072
29.676,8.14
29.68,7.956
29.684,7.892
29.688,8.036
29.692,8.144
29.696,8.008
29.7,7.916
29.704,8.004
29.708,8.132
29.712,8.044
29.716,7.904
29.72,7.976
29.724,8.12
29.728,8.068
29.732,7.904
29.736,7.976
29.74,8.084
29.744,8.068
29.748,7.916
29.752,7.924
29.756,8.072
29.76,8.112
29.764,7.928
29.768,7.864
29.772,8.024
29.776,8.12
29.78,7.96
29.784,7.912
29.788,8.044
29.792,8.172
29.796,8.092
29.8,8.02
29.804,8.064
29.808,8.136
29.812,8.036
29.816,7.92
29.82,7.968
29.824,8.1
29.828,8.032
29.832,7.888
29.836,7.952
29.84,8.112
29.844,8.144
29.848,8.028
29.852,8.072
29.856,8.236
29.86,8.316
29.864,8.168
29.868,8.144
29.872,8.284
29.876,8.336
29.88,8.172
29.884,8.144
29.888,8.32
29.892,8.504
29.896,8.412
29.9,8.3
29.904,8.392
29.908,8.46
29.912,8.304
29.916,8.176
29.92,8.204
29.924,8.296
29.928,8.248
29.932,8.092
29.936,8.144
29.94,8.236
29.944,8.212
29.948,8.008
29.952,7.984
29.956,8.084
29.96,8.128
29.964,7.936
29.968,7.924
29.972,8.056
29.976,8.112
29.98,7.96
29.984,7.872
29.988,8.004
29.992,8.116
29.996,7.972
30,7.856
30.004,7.968
30.008,8.1
30.012,7.984
30.016,7.884
30.02,7.956
30.024,8.068
30.028,8.024
30.032,7.868
30.036,7.92
30.04,8.048
30.044,8.052
30.048,7.904
30.052,7.912
30.056,8.052
30.06,8.1
30.064,7.888
30.068,7.84
30.072,8.04
30.076,8.412
30.08,8.688
30.084,9.112
30.088,9.792
30.092,10.3
30.096,9.896
30.1,8.98
30.104,8.5
30.108,8.084
30.112,7.864
30.116,7.516
30.12,7.492
30.124,7.824
30.128,7.984
30.132,7.892
30.136,7.932
30.14,8.092
30.144,7.992
30.148,7.76
30.152,7.72
30.156,7.884
30.16,7.992
30.164,7.892
30.168,7.892
30.172,8.056
30.176,8.136
30.18,7.956
30.184,7.94
30.188,8.104
30.192,8.224
30.196,8.016
30.2,7.856
30.204,7.944
30.208,8.084
30.212,7.92
30.216,7.788
30.22,7.904
30.224,8.04
30.228,8
30.232,7.888
30.236,7.92
30.24,8.068
30.244,8.044
30.248,7.876
30.252,7.876
30.256,8.02
30.26,8.044
30.264,7.908
30.268,7.884
30.272,8.048
30.276,8.14
30.28,7.948
30.284,7.928
30.288,8.036
30.292,8.16
30.296,8.024
30.3,7.968
30.304,8.04
30.308,8.176
30.312,8.092
30.316,7.992
30.32,8.108
30.324,8.264
30.328,8.216
30.332,8.1
30.336,8.192
30.34,8.332
30.344,8.32
30.348,8.164
30.352,8.184
30.356,8.36
30.36,8.436
30.364,8.264
30.368,8.24
30.372,8.428
30.376,8.504
30.38,8.344
30.384,8.296
30.388,8.428
30.392,8.528
30.396,8.364
30.4,8.232
30.404,8.352
30.408,8.456
30.412,8.3
30.416,8.148
30.42,8.2
30.424,8.332
30.428,8.22
30.432,8.06
30.436,8.06
30.44,8.164
30.444,8.156
30.448,7.992
30.452,7.984
30.456,8.116
30.46,8.128
30.464,7.964
30.468,7.912
30.472,8.06
30.476,8.108
30.48,7.952
30.484,7.896
30.488,8.044
30.492,8.148
30.496,7.956
30.5,7.868
30.504,8
30.508,8.128
30.512,8
30.516,7.888
30.52,7.968
30.524,8.096
30.528,8.024
30.532,7.876
30.536,7.928
30.54,8.096
30.544,8.052
30.548,7.912
30.552,7.916
30.556,8.068
30.56,8.088
30.564,7.892
30.568,7.9
30.572,8.032
30.576,8.132
30.58,7.936
30.584,7.868
30.588,8.032
30.592,8.116
30.596,7.972
30.6,7.888
30.604,7.98
30.608,8.12
30.612,7.98
30.616,7.856
30.62,7.936
30.624,8.096
30.628,8.004
30.632,7.86
30.636,7.92
30.64,8.092
30.644,8.044
30.648,7.852
30.652,7.868
30.656,8.028
30.66,8.06
30.664,7.884
30.668,7.868
30.672,8.028
30.676,8.048
30.68,7.904
30.684,7.864
30.688,7.996
30.692,8.076
30.696,7.932
30.7,7.832
30.704,7.968
30.708,8.104
30.712,7.98
30.716,7.856
30.72,7.908
30.724,8.052
30.728,7.992
30.732,7.868
30.736,7.892
30.74,8.072
30.744,8.04
30.748,7.892
30.752,7.924
30.756,8.04
30.76,8.028
30.764,7.876
30.768,7.86
30.772,7.992
30.776,8.076
30.78,7.896
30.784,7.828
30.788,7.964
30.792,8.096
30.796,7.916
30.8,7.804
30.804,7.944
30.808,8.084
30.812,7.964
30.816,7.816
30.82,7.92
30.824,8.044
30.828,7.96
30.832,7.836
30.836,7.9
30.84,8.036
30.844,8.016
30.848,7.824
30.852,7.836
30.856,8.012
30.86,8.052
30.864,7.86
30.868,7.848
30.872,7.992
30.876,8.064
30.88,7.904
30.884,7.836
30.888,7.944
30.892,8.048
30.896,7.932
30.9,7.912
30.904,8.048
30.908,8.128
30.912,8.004
30.916,7.888
30.92,8.052
30.924,8.256
30.928,8.244
30.932,8.14
30.936,8.148
30.94,8.264
30.944,8.26
30.948,8.104
30.952,8.044
30.956,8.164
30.96,8.168
30.964,7.98
30.968,7.968
30.972,8.128
30.976,8.14
30.98,7.9
30.984,7.804
30.988,7.936
30.992,8.008
30.996,7.86
31,7.76
31.004,7.896
31.008,8.02
31.012,7.872
31.016,7.744
31.02,7.832
31.024,7.968
31.028,7.908
31.032,7.756
31.036,7.804
31.04,7.928
31.044,7.92
31.048,7.768
31.052,7.808
31.056,7.944
31.06,7.976
31.064,7.788
31.068,7.78
31.072,7.92
31.076,7.984
31.08,7.804
31.084,7.744
31.088,7.896
31.092,7.992
31.096,7.828
31.1,7.696
31.104,7.8
31.108,8.112
31.112,8.396
31.116,8.796
31.12,9.456
31.124,10.184
31.128,10.264
31.132,9.328
31.136,8.6
31.14,8.128
31.144,7.624
31.148,7.24
31.152,7.272
31.156,7.536
31.16,7.788
31.164,7.784
31.168,7.776
31.172,7.92
31.176,8.012
31.18,7.844
31.184,7.784
31.188,7.924
31.192,8.02
31.196,7.844
31.2,7.752
31.204,7.876
31.208,7.988
31.212,7.88
31.216,7.752
31.22,7.852
31.224,8.004
31.228,7.92
31.232,7.756
31.236,7.804
31.24,7.952
31.244,7.944
31.248,7.788
31.252,7.78
31.256,7.932
31.26,7.964
31.264,7.804
31.268,7.788
31.272,7.924
31.276,7.996
31.28,7.816
31.284,7.756
31.288,7.904
31.292,8.004
31.296,7.864
31.3,7.772
31.304,7.904
31.308,8.036
31.312,7.924
31.316,7.812
31.32,7.92
31.324,8.056
31.328,7.98
31.332,7.856
31.336,7.92
31.34,8.068
31.344,8.052
31.348,7.92
31.352,7.98
31.356,8.144
31.36,8.152
31.364,7.976
31.368,7.992
31.372,8.152
31.376,8.244
31.38,8.096
31.384,8.052
31.388,8.196
31.392,8.324
31.396,8.18
31.4,8.12
31.404,8.264
31.408,8.38
31.412,8.272
31.416,8.16
31.42,8.28
31.424,8.388
31.428,8.332
31.432,8.168
31.436,8.212
31.44,8.324
31.444,8.284
31.448,8.084
31.452,8.084
31.456,8.18
31.46,8.184
31.464,8.004
31.468,7.96
31.472,8.08
31.476,8.12
31.48,7.94
31.484,7.892
31.488,7.984
31.492,8.096
31.496,7.908
31.5,7.816
31.504,7.944
31.508,8.064
31.512,7.932
31.516,7.808
31.52,7.88
31.524,8.036
31.528,7.944
31.532,7.82
31.536,7.872
31.54,7.992
31.544,7.976
31.548,7.804
31.552,7.816
31.556,7.984
31.56,7.988
31.564,7.836
31.568,7.82
31.572,7.976
31.576,8.028
31.58,7.824
31.584,7.8
31.588,7.924
31.592,8.016
31.596,7.876
31.6,7.768
31.604,7.912
31.608,8.036
31.612,7.904
31.616,7.792
31.62,7.884
31.624,8.012
31.628,7.948
31.632,7.78
31.636,7.852
31.64,8.02
31.644,7.972
31.648,7.816
31.652,7.808
31.656,7.948
31.66,8.016
31.664,7.812
31.668,7.772
31.672,7.96
31.676,8.016
31.68,7.836
31.684,7.78
31.688,7.92
31.692,8.016
31.696,7.864
31.7,7.78
31.704,7.896
31.708,8.004
31.712,7.876
31.716,7.784
31.72,7.852
31.724,8.004
31.728,7.908
31.732,7.756
31.736,7.82
31.74,7.992
31.744,7.952
31.748,7.776
31.752,7.812
31.756,7.948
31.76,7.98
31.764,7.796
31.768,7.792
31.772,7.94
31.776,8
31.78,7.824
31.784,7.764
31.788,7.916
31.792,8.028
31.796,7.848
31.8,7.744
31.804,7.896
31.808,8.02
31.812,7.884
31.816,7.788
31.82,7.864
31.824,8.008
31.828,7.916
31.832,7.812
31.836,7.848
31.84,8.008
31.844,7.968
31.848,7.784
31.852,7.828
31.856,7.988
31.86,7.992
31.864,7.804
31.868,7.82
31.872,7.948
31.876,8.012
31.88,7.832
31.884,7.8
31.888,7.936
31.892,8.04
31.896,7.872
31.9,7.776
31.904,7.908
31.908,8.036
31.912,7.912
31.916,7.8
31.92,7.9
31.924,8.032
31.928,7.952
31.932,7.804
31.936,7.888
31.94,8.076
31.944,8.072
31.948,7.888
31.952,7.912
31.956,8.064
31.96,8.104
31.964,7.988
31.968,8.052
31.972,8.244
31.976,8.288
31.98,8.132
31.984,8.032
31.988,8.112
31.992,8.192
31.996,8.032
32,7.92
32.004,8.048
32.008,8.168
32.012,8.044
32.016,7.912
32.02,7.968
32.024,8.084
32.028,7.952
32.032,7.8
32.036,7.844
32.04,7.976
32.044,7.92
32.048,7.772
32.052,7.78
32.056,7.944
32.06,7.952
32.064,7.752
32.068,7.78
32.072,7.916
32.076,7.976
32.08,7.8
32.084,7.74
32.088,7.884
32.092,8.004
32.096,7.816
32.1,7.752
32.104,7.86
32.108,8.016
32.112,7.872
32.116,7.744
32.12,7.84
32.124,7.996
32.128,7.904
32.132,7.768
32.136,7.796
32.14,7.916
32.144,7.936
32.148,8.024
32.152,8.496
32.156,9.212
32.16,9.804
32.164,10.24
32.168,10.288
32.172,9.62
32.176,8.896
32.18,8.036
32.184,7.52
32.188,7.484
32.192,7.548
32.196,7.564
32.2,7.692
32.204,7.96
32.208,8.072
32.212,7.92
32.216,7.824
32.22,7.932
32.224,8.068
32.228,7.968
32.232,7.812
32.236,7.88
32.24,8.032
32.244,7.972
32.248,7.804
32.252,7.852
32.256,8
32.26,8.004
32.264,7.84
32.268,7.832
32.272,7.972
32.276,8.02
32.28,7.856
32.284,7.812
32.288,7.936
32.292,8.044
32.296,7.88
32.3,7.788
32.304,7.936
32.308,8.068
32.312,7.908
32.316,7.804
32.32,7.884
32.324,8.032
32.328,7.952
32.332,7.824
32.336,7.88
32.34,8.02
32.344,7.984
32.348,7.84
32.352,7.892
32.356,8.052
32.36,8.048
32.364,7.884
32.368,7.872
32.372,8.076
32.376,8.132
32.38,7.964
32.384,7.908
32.388,8.092
32.392,8.18
32.396,8.068
32.4,7.98
32.404,8.128
32.408,8.268
32.412,8.168
32.416,8.068
32.42,8.168
32.424,8.328
32.428,8.272
32.432,8.148
32.436,8.244
32.44,8.392
32.444,8.364
32.448,8.224
32.452,8.284
32.456,8.432
32.46,8.452
32.464,8.268
32.468,8.256
32.472,8.388
32.476,8.404
32.48,8.204
32.484,8.152
32.488,8.256
32.492,8.304
32.496,8.124
32.5,8.036
32.504,8.132
32.508,8.216
32.512,8.044
32.516,7.94
32.52,8.012
32.524,8.156
32.528,8.06
32.532,7.884
32.536,7.92
32.54,8.092
32.544,8.048
32.548,7.88
32.552,7.908
32.556,8.044
32.56,8.068
32.564,7.86
32.568,7.892
32.572,8.032
32.576,8.076
32.58,7.904
32.584,7.856
32.588,8
32.592,8.108
32.596,7.932
32.6,7.832
32.604,7.956
32.608,8.104
32.612,7.952
32.616,7.84
32.62,7.928
32.624,8.08
32.628,7.992
32.632,7.856
32.636,7.904
32.64,8.068
32.644,8.012
32.648,7.856
32.652,7.864
32.656,8.016
32.66,8.036
32.664,7.864
32.668,7.86
32.672,8.02
32.676,8.052
32.68,7.868
32.684,7.812
32.688,7.976
32.692,8.076
32.696,7.912
32.7,7.832
32.704,7.952
32.708,8.076
32.712,7.92
32.716,7.808
32.72,7.936
32.724,8.056
32.728,7.96
32.732,7.808
32.736,7.88
32.74,8.032
32.744,8
32.748,7.808
32.752,7.84
32.756,8.004
32.76,7.996
32.764,7.86
32.768,7.824
32.772,7.988
32.776,8.036
32.78,7.868
32.784,7.824
32.788,7.932
32.792,8.024
32.796,7.86
32.8,7.792
32.804,7.928
32.808,8.044
32.812,7.912
32.816,7.804
32.82,7.904
32.824,8.028
32.828,7.968
32.832,7.8
32.836,7.88
32.84,8
32.844,7.976
32.848,7.824
32.852,7.84
32.856,8
32.86,8.008
32.864,7.828
32.868,7.82
32.872,7.98
32.876,8.032
32.88,7.86
32.884,7.804
32.888,7.956
32.892,8.052
32.896,7.896
32.9,7.792
32.904,7.94
32.908,8.052
32.912,7.92
32.916,7.816
32.92,7.916
32.924,8.036
32.928,7.944
32.932,7.812
32.936,7.896
32.94,8.024
32.944,7.984
32.948,7.804
32.952,7.852
32.956,8.008
32.96,8.044
32.964,7.856
32.968,7.888
32.972,8.06
32.976,8.128
32.98,7.964
32.984,7.888
32.988,8.048
32.992,8.148
32.996,8.028
33,8.068
33.004,8.256
33.008,8.376
33.012,8.192
33.016,8.028
33.02,8.112
33.024,8.232
33.028,8.088
33.032,7.936
33.036,7.996
33.04,8.168
33.044,8.096
33.048,7.92
33.052,7.932
33.056,8.056
33.06,8.032
33.064,7.856
33.068,7.832
33.072,7.944
33.076,7.996
33.08,7.816
33.084,7.784
33.088,7.928
33.092,8.012
33.096,7.84
33.1,7.776
33.104,7.904
33.108,8.028
33.112,7.868
33.116,7.776
33.12,7.868
33.124,8.04
33.128,7.932
33.132,7.796
33.136,7.848
33.14,8.012
33.144,7.94
33.148,7.824
33.152,7.816
33.156,8.02
33.16,8.024
33.164,7.844
33.168,7.812
33.172,7.956
33.176,8.048
33.18,8.088
33.184,8.476
33.188,9.16
33.192,9.808
33.196,10.18
33.2,10.144
33.204,9.456
33.208,8.804
33.212,8.092
33.216,7.516
33.22,7.404
33.224,7.556
33.228,7.58
33.232,7.712
33.236,7.916
33.24,8.076
33.244,8.02
33.248,7.872
33.252,7.912
33.256,8.064
33.26,8.064
33.264,7.868
33.268,7.848
33.272,8.012
33.276,8.076
33.28,7.896
33.284,7.836
33.288,8.04
33.292,8.1
33.296,7.912
33.3,7.84
33.304,7.988
33.308,8.128
33.312,7.952
33.316,7.824
33.32,7.92
33.324,8.124
33.328,7.984
33.332,7.868
33.336,7.856
33.34,8.112
33.344,8.044
33.348,7.876
33.352,7.856
33.356,8.08
33.36,8.068
33.364,7.904
33.368,7.912
33.372,8.084
33.376,8.116
33.38,7.944
33.384,7.896
33.388,8.06
33.392,8.128
33.396,7.996
33.4,7.928
33.404,8.064
33.408,8.188
33.412,8.08
33.416,7.976
33.42,8.108
33.424,8.24
33.428,8.156
33.432,8.036
33.436,8.148
33.44,8.308
33.444,8.284
33.448,8.132
33.452,8.212
33.456,8.364
33.46,8.376
33.464,8.24
33.468,8.28
33.472,8.412
33.476,8.5
33.48,8.324
33.484,8.296
33.488,8.444
33.492,8.524
33.496,8.372
33.5,8.268
33.504,8.404
33.508,8.468
33.512,8.324
33.516,8.192
33.52,8.272
33.524,8.344
33.528,8.22
33.532,8.044
33.536,8.124
33.54,8.224
33.544,8.156
33.548,7.992
33.552,8.024
33.556,8.112
33.56,8.108
33.564,7.956
33.568,7.956
33.572,8.068
33.576,8.096
33.58,7.948
33.584,7.9
33.588,8.056
33.592,8.132
33.596,7.956
33.6,7.9
33.604,8.048
33.608,8.104
33.612,7.976
33.616,7.884
33.62,7.996
33.624,8.12
33.628,8.012
33.632,7.876
33.636,7.984
33.64,8.088
33.644,8.032
33.648,7.872
33.652,7.936
33.656,8.052
33.66,8.056
33.664,7.896
33.668,7.912
33.672,8.048
33.676,8.108
33.68,7.92
33.684,7.896
33.688,8.016
33.692,8.104
33.696,7.944
33.7,7.864
33.704,8.012
33.708,8.104
33.712,8.004
33.716,7.904
33.72,8.016
33.724,8.112
33.728,8.012
33.732,7.884
33.736,8
33.74,8.108
33.744,8.044
33.748,7.912
33.752,7.952
33.756,8.088
33.76,8.096
33.764,7.888
33.768,7.916
33.772,8.068
33.776,8.096
33.78,7.948
33.784,7.912
33.788,8.056
33.792,8.108
33.796,7.972
33.8,7.916
33.804,8.044
33.808,8.12
33.812,7.98
33.816,7.896
33.82,8.016
33.824,8.132
33.828,8.016
33.832,7.884
33.836,7.972
33.84,8.1
33.844,8.056
33.848,7.892
33.852,7.96
33.856,8.064
33.86,8.072
33.864,7.908
33.868,7.94
33.872,8.048
33.876,8.084
33.88,7.94
33.884,7.896
33.888,8.048
33.892,8.096
33.896,7.968
33.9,7.876
33.904,8.048
33.908,8.096
33.912,8.012
33.916,7.884
33.92,8.008
33.924,8.104
33.928,8.012
33.932,7.888
33.936,7.984
33.94,8.08
33.944,8.032
33.948,7.892
33.952,7.948
33.956,8.08
33.96,8.076
33.964,7.876
33.968,7.912
33.972,8.06
33.976,8.096
33.98,7.928
33.984,7.884
33.988,8.028
33.992,8.108
33.996,7.988
34,7.94
34.004,8.088
34.008,8.208
34.012,8.08
34.016,7.964
34.02,8.084
34.024,8.196
34.028,8.184
34.032,8.16
34.036,8.28
34.04,8.364
34.044,8.268
34.048,8.08
34.052,8.128
34.056,8.248
34.06,8.2
34.064,8.008
34.068,8.02
34.072,8.156
34.076,8.168
34.08,8.02
34.084,7.96
34.088,8.036
34.092,8.076
34.096,7.908
34.1,7.82
34.104,7.96
34.108,8.048
34.112,7.892
34.116,7.808
34.12,7.932
34.124,8.04
34.128,7.936
34.132,7.792
34.136,7.896
34.14,8.012
34.144,7.972
34.148,7.792
34.152,7.848
34.156,7.996
34.16,8.012
34.164,7.844
34.168,7.832
34.172,7.96
34.176,8.028
34.18,7.844
34.184,7.816
34.188,7.992
34.192,8.064
34.196,7.888
34.2,7.808
34.204,7.92
34.208,8.044
34.212,8.2
34.216,8.52
34.22,9.152
34.224,9.784
34.228,10.168
34.232,10.048
34.236,9.332
34.24,8.72
34.244,8.084
34.248,7.496
34.252,7.384
34.256,7.512
34.26,7.668
34.264,7.72
34.268,7.86
34.272,8.02
34.276,8.044
34.28,7.912
34.284,7.84
34.288,8.024
34.292,8.056
34.296,7.904
34.3,7.848
34.304,8
34.308,8.048
34.312,7.956
34.316,7.836
34.32,7.964
34.324,8.068
34.328,7.984
34.332,7.848
34.336,7.948
34.34,8.072
34.344,8.016
34.348,7.844
34.352,7.904
34.356,8.052
34.36,8.032
34.364,7.872
34.368,7.876
34.372,8.028
34.376,8.048
34.38,7.892
34.384,7.86
34.388,8.024
34.392,8.052
34.396,7.932
34.4,7.848
34.404,8.04
34.408,8.112
34.412,7.98
34.416,7.884
34.42,8.008
34.424,8.116
34.428,8.048
34.432,7.936
34.436,8.04
34.44,8.152
34.444,8.116
34.448,8
34.452,8.044
34.456,8.196
34.46,8.204
34.464,8.08
34.468,8.068
34.472,8.28
34.476,8.284
34.48,8.176
34.484,8.152
34.488,8.328
34.492,8.404
34.496,8.304
34.5,8.22
34.504,8.396
34.508,8.484
34.512,8.352
34.516,8.264
34.52,8.416
34.524,8.508
34.528,8.42
34.532,8.276
34.536,8.352
34.54,8.472
34.544,8.364
34.548,8.192
34.552,8.204
34.556,8.324
34.56,8.272
34.564,8.084
34.568,8.052
34.572,8.184
34.576,8.196
34.58,8.024
34.584,7.976
34.588,8.092
34.592,8.152
34.596,7.964
34.6,7.916
34.604,8.076
34.608,8.104
34.612,7.98
34.616,7.86
34.62,8.012
34.624,8.096
34.628,8.024
34.632,7.88
34.636,7.96
34.64,8.092
34.644,8.048
34.648,7.888
34.652,7.936
34.656,8.056
34.66,8.04
34.664,7.884
34.668,7.9
34.672,8.044
34.676,8.064
34.68,7.876
34.684,7.832
34.688,8.032
34.692,8.068
34.696,7.9
34.7,7.856
34.704,8.028
34.708,8.072
34.712,7.96
34.716,7.852
34.72,7.976
34.724,8.096
34.728,7.988
34.732,7.844
34.736,7.932
34.74,8.06
34.744,8.02
34.748,7.884
34.752,7.924
34.756,8.052
34.76,8.04
34.764,7.88
34.768,7.864
34.772,8.028
34.776,8.06
34.78,7.876
34.784,7.82
34.788,8.004
34.792,8.064
34.796,7.916
34.8,7.852
34.804,8
34.808,8.048
34.812,7.9
34.816,7.824
34.82,7.956
34.824,8.068
34.828,7.928
34.832,7.796
34.836,7.896
34.84,8.028
34.844,7.936
34.848,7.82
34.852,7.868
34.856,7.992
34.86,7.992
34.864,7.804
34.868,7.832
34.872,7.976
34.876,7.988
34.88,7.84
34.884,7.816
34.888,7.952
34.892,7.996
34.896,7.872
34.9,7.808
34.904,7.988
34.908,8.028
34.912,7.876
34.916,7.812
34.92,7.948
34.924,8.012
34.928,7.936
34.932,7.804
34.936,7.876
34.94,7.996
34.944,7.952
34.948,7.776
34.952,7.832
34.956,7.988
34.96,7.968
34.964,7.812
34.968,7.836
34.972,7.996
34.976,7.976
34.98,7.804
34.984,7.792
34.988,7.972
34.992,8.024
34.996,7.848
35,7.788
35.004,7.952
35.008,8.028
35.012,7.876
35.016,7.784
35.02,7.932
35.024,8.04
35.028,7.956
35.032,7.864
35.036,7.944
35.04,8.08
35.044,7.984
35.048,7.844
35.052,7.916
35.056,8.132
35.06,8.208
35.064,8.084
35.068,8.092
35.072,8.236
35.076,8.196
35.08,7.988
35.084,7.952
35.088,8.088
35.092,8.108
35.096,7.976
35.1,7.916
35.104,8.064
35.108,8.088
35.112,7.936
35.116,7.788
35.12,7.872
35.124,7.972
35.128,7.868
35.132,7.744
35.136,7.8
35.14,7.948
35.144,7.86
35.148,7.724
35.152,7.768
35.156,7.916
35.16,7.904
35.164,7.72
35.168,7.736
35.172,7.896
35.176,7.888
35.18,7.716
35.184,7.712
35.188,7.884
35.192,7.932
35.196,7.784
35.2,7.696
35.204,7.9
35.208,7.956
35.212,7.812
35.216,7.704
35.22,7.864
35.224,7.96
35.228,7.844
35.232,7.66
35.236,7.772
35.24,8.12
35.244,8.456
35.248,8.84
35.252,9.428
35.256,10.176
35.26,10.32
35.264,9.388
35.268,8.624
35.272,8.128
35.276,7.604
35.28,7.232
35.284,7.18
35.288,7.508
35.292,7.768
35.296,7.764
35.3,7.712
35.304,7.916
35.308,7.952
35.312,7.836
35.316,7.744
35.32,7.884
35.324,7.96
35.328,7.844
35.332,7.716
35.336,7.808
35.34,7.96
35.344,7.872
35.348,7.744
35.352,7.796
35.356,7.948
35.36,7.936
35.364,7.74
35.368,7.74
35.372,7.932
35.376,7.952
35.38,7.784
35.384,7.76
35.388,7.904
35.392,7.956
35.396,7.788
35.4,7.74
35.404,7.904
35.408,7.948
35.412,7.832
35.416,7.732
35.42,7.86
35.424,7.968
35.428,7.864
35.432,7.748
35.436,7.848
35.44,8.004
35.444,7.912
35.448,7.772
35.452,7.836
35.456,7.988
35.46,7.956
35.464,7.816
35.468,7.86
35.472,8.048
35.476,8.04
35.48,7.904
35.484,7.904
35.488,8.1
35.492,8.136
35.496,7.968
35.5,7.928
35.504,8.14
35.508,8.232
35.512,8.08
35.516,8.036
35.52,8.176
35.524,8.292
35.528,8.204
35.532,8.1
35.536,8.184
35.54,8.352
35.544,8.296
35.548,8.156
35.552,8.188
35.556,8.34
35.56,8.308
35.564,8.128
35.568,8.128
35.572,8.26
35.576,8.276
35.58,8.056
35.584,8.02
35.588,8.136
35.592,8.148
35.596,7.98
35.6,7.908
35.604,8.02
35.608,8.076
35.612,7.912
35.616,7.804
35.62,7.944
35.624,8.008
35.628,7.908
35.632,7.792
35.636,7.88
35.64,8.004
35.644,7.92
35.648,7.772
35.652,7.808
35.656,7.996
35.66,7.944
35.664,7.784
35.668,7.78
35.672,7.972
35.676,7.976
35.68,7.816
35.684,7.772
35.688,7.94
35.692,7.98
35.696,7.844
35.7,7.78
35.704,7.936
35.708,8.024
35.712,7.856
35.716,7.776
35.72,7.896
35.724,8
35.728,7.884
35.732,7.764
35.736,7.868
35.74,7.988
35.744,7.94
35.748,7.82
35.752,7.852
35.756,8.012
35.76,7.976
35.764,7.82
35.768,7.832
35.772,8.028
35.776,8.016
35.78,7.828
35.784,7.828
35.788,7.98
35.792,8.028
35.796,7.852
35.8,7.8
35.804,7.972
35.808,8.02
35.812,7.9
35.816,7.788
35.82,7.908
35.824,8.028
35.828,7.904
35.832,7.816
35.836,7.884
35.84,8.044
35.844,7.94
35.848,7.796
35.852,7.844
35.856,8.016
35.86,7.964
35.864,7.8
35.868,7.816
35.872,8.012
35.876,7.992
35.88,7.852
35.884,7.812
35.888,7.964
35.892,7.996
35.896,7.844
35.9,7.796
35.904,7.956
35.908,8.004
35.912,7.856
35.916,7.8
35.92,7.916
35.924,8.016
35.928,7.904
35.932,7.78
35.936,7.864
35.94,8.04
35.944,7.948
35.948,7.796
35.952,7.852
35.956,8.02
35.96,7.972
35.964,7.796
35.968,7.82
35.972,8.008
35.976,8.004
35.98,7.816
35.984,7.812
35.988,7.992
35.992,8.012
35.996,7.864
36,7.788
36.004,7.948
36.008,8.032
36.012,7.892
36.016,7.772
36.02,7.912
36.024,8.04
36.028,7.944
36.032,7.8
36.036,7.884
36.04,8.028
36.044,7.952
36.048,7.832
36.052,7.896
36.056,8.032
36.06,8.024
36.064,7.884
36.068,7.936
36.072,8.096
36.076,8.06
36.08,7.88
36.084,7.9
36.088,8.168
36.092,8.272
36.096,8.168
36.1,8.084
36.104,8.188
36.108,8.216
36.112,8.092
36.116,7.968
36.12,8.068
36.124,8.136
36.128,8.036
36.132,7.928
36.136,8.02
36.14,8.136
36.144,8.008
36.148,7.836
36.152,7.836
36.156,8.028
36.16,7.956
36.164,7.752
36.168,7.788
36.172,7.976
36.176,7.94
36.18,7.796
36.184,7.784
36.188,7.928
36.192,7.98
36.196,7.812
36.2,7.76
36.204,7.912
36.208,7.984
36.212,7.848
36.216,7.772
36.22,7.904
36.224,8.016
36.228,7.88
36.232,7.76
36.236,7.844
36.24,7.98
36.244,7.936
36.248,7.788
36.252,7.828
36.256,8
36.26,7.932
36.264,7.764
36.268,7.856
36.272,8.288
36.276,8.748
36.28,9.116
36.284,9.672
36.288,10.336
36.292,10.28
36.296,9.26
36.3,8.5
36.304,7.98
36.308,7.664
36.312,7.364
36.316,7.316
36.32,7.576
36.324,7.936
36.328,7.944
36.332,7.828
36.336,7.904
36.34,8.068
36.344,7.976
36.348,7.844
36.352,7.868
36.356,8.04
36.36,7.984
36.364,7.804
36.368,7.832
36.372,8.028
36.376,8.016
36.38,7.852
36.384,7.816
36.388,7.996
36.392,8.024
36.396,7.88
36.4,7.82
36.404,7.952
36.408,8.032
36.412,7.868
36.416,7.816
36.42,7.948
36.424,8.044
36.428,7.924
36.432,7.8
36.436,7.892
36.44,8.06
36.444,7.964
36.448,7.812
36.452,7.884
36.456,8.044
36.46,8.024
36.464,7.86
36.468,7.884
36.472,8.06
36.476,8.044
36.48,7.9
36.484,7.872
36.488,8.088
36.492,8.088
36.496,7.952
36.5,7.924
36.504,8.084
36.508,8.156
36.512,8.036
36.516,7.952
36.52,8.104
36.524,8.232
36.528,8.156
36.532,8.044
36.536,8.152
36.54,8.3
36.544,8.24
36.548,8.136
36.552,8.2
36.556,8.372
36.56,8.368
36.564,8.188
36.568,8.264
36.572,8.448
36.576,8.42
36.58,8.264
36.584,8.256
36.588,8.424
36.592,8.448
36.596,8.26
36.6,8.192
36.604,8.312
36.608,8.38
36.612,8.192
36.616,8.06
36.62,8.16
36.624,8.236
36.628,8.104
36.632,7.964
36.636,8.02
36.64,8.168
36.644,8.048
36.648,7.9
36.652,7.932
36.656,8.116
36.66,8.048
36.664,7.888
36.668,7.912
36.672,8.06
36.676,8.056
36.68,7.888
36.684,7.868
36.688,8.048
36.692,8.056
36.696,7.908
36.7,7.888
36.704,8.012
36.708,8.08
36.712,7.928
36.716,7.848
36.72,7.98
36.724,8.088
36.728,7.968
36.732,7.796
36.736,7.888
36.74,8.088
36.744,7.984
36.748,7.836
36.752,7.892
36.756,8.064
36.76,8.02
36.764,7.856
36.768,7.868
36.772,8.064
36.776,8.044
36.78,7.856
36.784,7.856
36.788,8.028
36.792,8.072
36.796,7.896
36.8,7.832
36.804,8.004
36.808,8.076
36.812,7.924
36.816,7.852
36.82,7.9
36.824,8.092
36.828,7.956
36.832,7.84
36.836,7.928
36.84,8.068
36.844,7.976
36.848,7.852
36.852,7.908
36.856,8.08
36.86,8.024
36.864,7.88
36.868,7.904
36.872,8.064
36.876,8.024
36.88,7.876
36.884,7.852
36.888,8
36.892,8.064
36.896,7.908
36.9,7.852
36.904,7.996
36.908,8.068
36.912,7.948
36.916,7.844
36.92,7.968
36.924,8.076
36.928,7.956
36.932,7.84
36.936,7.932
36.94,8.084
36.944,7.98
36.948,7.848
36.952,7.908
36.956,8.08
36.96,8.024
36.964,7.872
36.968,7.88
36.972,8.052
36.976,8.032
36.98,7.868
36.984,7.856
36.988,8.02
36.992,8.044
36.996,7.9
37,7.832
37.004,8.028
37.008,8.076
37.012,7.908
37.016,7.836
37.02,7.98
37.024,8.084
37.028,7.964
37.032,7.808
37.036,7.932
37.04,8.1
37.044,7.972
37.048,7.84
37.052,7.9
37.056,8.088
37.06,8.004
37.064,7.864
37.068,7.888
37.072,8.02
37.076,8.048
37.08,7.868
37.084,7.876
37.088,8.036
37.092,8.088
37.096,7.956
37.1,7.924
37.104,8.076
37.108,8.164
37.112,7.976
37.116,7.916
37.12,8.104
37.124,8.336
37.128,8.248
37.132,8.136
37.136,8.212
37.14,8.316
37.144,8.192
37.148,7.988
37.152,8.052
37.156,8.2
37.16,8.12
37.164,7.98
37.168,7.996
37.172,8.164
37.176,8.124
37.18,7.928
37.184,7.876
37.188,7.992
37.192,8.024
37.196,7.868
37.2,7.816
37.204,7.956
37.208,8.044
37.212,7.844
37.216,7.792
37.22,7.928
37.224,8.024
37.228,7.904
37.232,7.816
37.236,7.88
37.24,8.04
37.244,7.932
37.248,7.8
37.252,7.852
37.256,8.004
37.26,7.964
37.264,7.812
37.268,7.856
37.272,8.008
37.276,7.988
37.28,7.852
37.284,7.84
37.288,8.008
37.292,7.992
37.296,7.828
37.3,7.784
37.304,8.108
37.308,8.568
37.312,8.904
37.316,9.356
37.32,10.084
37.324,10.516
37.328,9.768
37.332,8.76
37.336,8.212
37.34,7.832
37.344,7.468
37.348,7.28
37.352,7.468
37.356,7.844
37.36,7.972
37.364,7.872
37.368,7.904
37.372,8.068
37.376,8.064
37.38,7.896
37.384,7.884
37.388,8.044
37.392,8.088
37.396,7.892
37.4,7.856
37.404,8.004
37.408,8.092
37.412,7.932
37.416,7.86
37.42,7.956
37.424,8.088
37.428,7.952
37.432,7.876
37.436,7.968
37.44,8.096
37.444,7.992
37.448,7.852
37.452,7.924
37.456,8.06
37.46,8.02
37.464,7.856
37.468,7.888
37.472,8.08
37.476,8.076
37.48,7.896
37.484,7.884
37.488,8.052
37.492,8.1
37.496,7.924
37.5,7.912
37.504,8.028
37.508,8.136
37.512,7.996
37.516,7.924
37.52,8.064
37.524,8.16
37.528,8.076
37.532,7.952
37.536,8.028
37.54,8.24
37.544,8.14
37.548,8
37.552,8.068
37.556,8.268
37.56,8.224
37.564,8.116
37.568,8.164
37.572,8.288
37.576,8.32
37.58,8.196
37.584,8.2
37.588,8.364
37.592,8.412
37.596,8.272
37.6,8.228
37.604,8.412
37.608,8.532
37.612,8.364
37.616,8.268
37.62,8.416
37.624,8.54
37.628,8.372
37.632,8.268
37.636,8.304
37.64,8.456
37.644,8.288
37.648,8.148
37.652,8.168
37.656,8.28
37.66,8.176
37.664,8.012
37.668,8.008
37.672,8.152
37.676,8.16
37.68,7.952
37.684,7.932
37.688,8.076
37.692,8.136
37.696,7.956
37.7,7.884
37.704,8.024
37.708,8.108
37.712,7.952
37.716,7.868
37.72,7.996
37.724,8.108
37.728,8
37.732,7.868
37.736,7.972
37.74,8.156
37.744,8
37.748,7.868
37.752,7.912
37.756,8.056
37.76,8
37.764,7.86
37.768,7.888
37.772,8.064
37.776,8.02
37.78,7.872
37.784,7.884
37.788,8.024
37.792,8.084
37.796,7.892
37.8,7.848
37.804,8.024
37.808,8.076
37.812,7.94
37.816,7.852
37.82,7.976
37.824,8.088
37.828,7.968
37.832,7.84
37.836,7.936
37.84,8.116
37.844,7.984
37.848,7.848
37.852,7.916
37.856,8.068
37.86,8.032
37.864,7.856
37.868,7.904
37.872,8.048
37.876,8.052
37.88,7.84
37.884,7.876
37.888,8.028
37.892,8.076
37.896,7.888
37.9,7.832
37.904,8.004
37.908,8.096
37.912,7.92
37.916,7.856
37.92,7.964
37.924,8.08
37.928,7.948
37.932,7.836
37.936,7.94
37.94,8.088
37.944,7.964
37.948,7.832
37.952,7.92
37.956,8.088
37.96,8.012
37.964,7.844
37.968,7.884
37.972,8.064
37.976,8.044
37.98,7.86
37.984,7.852
37.988,7.992
37.992,8.108
37.996,7.9
38,7.836
38.004,7.984
38.008,8.104
38.012,7.92
38.016,7.824
38.02,7.956
38.024,8.104
38.028,7.936
38.032,7.836
38.036,7.944
38.04,8.1
38.044,7.96
38.048,7.852
38.052,7.916
38.056,8.068
38.06,8.016
38.064,7.856
38.068,7.888
38.072,8.044
38.076,8.056
38.08,7.892
38.084,7.888
38.088,8.032
38.092,8.088
38.096,7.896
38.1,7.86
38.104,8.016
38.108,8.12
38.112,7.912
38.116,7.828
38.12,8.012
38.124,8.148
38.128,8.02
38.132,7.92
38.136,8.036
38.14,8.204
38.144,8.072
38.148,7.944
38.152,8.024
38.156,8.232
38.16,8.296
38.164,8.172
38.168,8.192
38.172,8.328
38.176,8.272
38.18,8.08
38.184,8.04
38.188,8.196
38.192,8.188
38.196,8.036
38.2,7.964
38.204,8.108
38.208,8.188
38.212,8.004
38.216,7.9
38.22,7.984
38.224,8.092
38.228,7.916
38.232,7.796
38.236,7.912
38.24,8.064
38.244,7.944
38.248,7.784
38.252,7.9
38.256,8.04
38.26,7.968
38.264,7.804
38.268,7.844
38.272,7.992
38.276,8.004
38.28,7.832
38.284,7.836
38.288,7.98
38.292,8.044
38.296,7.86
38.3,7.812
38.304,7.98
38.308,8.1
38.312,7.896
38.316,7.824
38.32,7.976
38.324,8.1
38.328,7.896
38.332,7.8
38.336,7.948
38.34,8.372
38.344,8.692
38.348,9.124
38.352,9.712
38.356,10.372
38.36,10.252
38.364,9.216
38.368,8.44
38.372,7.98
38.376,7.592
38.38,7.308
38.384,7.348
38.388,7.68
38.392,7.952
38.396,7.888
38.4,7.884
38.404,8.02
38.408,8.124
38.412,7.936
38.416,7.868
38.42,7.964
38.424,8.12
38.428,7.972
38.432,7.844
38.436,7.94
38.44,8.092
38.444,8.008
38.448,7.872
38.452,7.92
38.456,8.068
38.46,8.032
38.464,7.852
38.468,7.888
38.472,8.036
38.476,8.036
38.48,7.868
38.484,7.844
38.488,8.04
38.492,8.076
38.496,7.872
38.5,7.868
38.504,7.98
38.508,8.108
38.512,7.916
38.516,7.868
38.52,7.972
38.524,8.108
38.528,7.936
38.532,7.872
38.536,7.948
38.54,8.144
38.544,8.008
38.548,7.868
38.552,7.948
38.556,8.136
38.56,8.096
38.564,7.96
38.568,7.968
38.572,8.152
38.576,8.188
38.58,8.012
38.584,8.044
38.588,8.196
38.592,8.292
38.596,8.108
38.6,8.088
38.604,8.284
38.608,8.384
38.612,8.24
38.616,8.184
38.62,8.336
38.624,8.492
38.628,8.344
38.632,8.26
38.636,8.34
38.64,8.544
38.644,8.44
38.648,8.316
38.652,8.356
38.656,8.524
38.66,8.452
38.664,8.276
38.668,8.284
38.672,8.436
38.676,8.392
38.68,8.172
38.684,8.148
38.688,8.284
38.692,8.292
38.696,8.1
38.7,8.032
38.704,8.176
38.708,8.248
38.712,8.052
38.716,7.972
38.72,8.076
38.724,8.196
38.728,8.048
38.732,7.944
38.736,8.032
38.74,8.176
38.744,8.064
38.748,7.928
38.752,8.012
38.756,8.156
38.76,8.08
38.764,7.924
38.768,7.964
38.772,8.124
38.776,8.152
38.78,7.912
38.784,7.948
38.788,8.068
38.792,8.168
38.796,7.944
38.8,7.908
38.804,8.048
38.808,8.16
38.812,7.96
38.816,7.92
38.82,8.04
38.824,8.164
38.828,7.992
38.832,7.888
38.836,8.016
38.84,8.164
38.844,8.048
38.848,7.876
38.852,7.984
38.856,8.14
38.86,8.084
38.864,7.928
38.868,7.976
38.872,8.128
38.876,8.124
38.88,7.952
38.884,7.916
38.888,8.068
38.892,8.136
38.896,7.948
38.9,7.908
38.904,8.064
38.908,8.164
38.912,7.976
38.916,7.908
38.92,8.024
38.924,8.192
38.928,8.024
38.932,7.888
38.936,7.956
38.94,8.112
38.944,8.02
38.948,7.884
38.952,7.988
38.956,8.12
38.96,8.012
38.964,7.872
38.968,7.916
38.972,8.048
38.976,8.068
38.98,7.88
38.984,7.9
38.988,8.056
38.992,8.1
38.996,7.928
39,7.872
39.004,8
39.008,8.1
39.012,7.932
39.016,7.84
39.02,7.988
39.024,8.104
39.028,7.944
39.032,7.852
39.036,7.948
39.04,8.072
39.044,7.964
39.048,7.836
39.052,7.896
39.056,8.044
39.06,8.012
39.064,7.864
39.068,7.884
39.072,8.02
39.076,8.036
39.08,7.832
39.084,7.828
39.088,8
39.092,8.064
39.096,7.892
39.1,7.86
39.104,8.008
39.108,8.06
39.112,7.876
39.116,7.828
39.12,7.952
39.124,8.08
39.128,7.912
39.132,7.828
39.136,7.916
39.14,8.072
39.144,7.96
39.148,7.82
39.152,7.9
39.156,8.06
39.16,8.056
39.164,7.9
39.168,7.932
39.172,8.064
39.176,8.08
39.18,7.884
39.184,7.9
39.188,8.1
39.192,8.256
