0,8.188
0.004,8.204
0.008,8.216
0.012,8.196
0.016,8.2
0.02,8.204
0.024,8.172
0.028,8.168
0.032,8.216
0.036,8.196
0.04,8.176
0.044,8.184
0.048,8.232
0.052,8.224
0.056,8.204
0.06,8.248
0.064,8.184
0.068,8.172
0.072,8.176
0.076,8.2
0.08,8.212
0.084,8.228
0.088,8.248
0.092,8.252
0.096,8.192
0.1,8.168
0.104,8.22
0.108,8.268
0.112,8.272
0.116,8.32
0.12,8.36
0.124,8.328
0.128,8.316
0.132,8.324
0.136,8.42
0.14,8.432
0.144,8.416
0.148,8.532
0.152,8.536
0.156,8.552
0.16,8.516
0.164,8.424
0.168,8.508
0.172,8.5
0.176,8.476
0.18,8.356
0.184,8.348
0.188,8.316
0.192,8.256
0.196,8.22
0.2,8.2
0.204,8.104
0.208,8.128
0.212,8.124
0.216,8.12
0.22,8.128
0.224,8.128
0.228,8.076
0.232,8.076
0.236,8.056
0.24,7.992
0.244,8.088
0.248,8.108
0.252,8.084
0.256,8.056
0.26,8.064
0.264,8.104
0.268,8.136
0.272,8.116
0.276,8.184
0.28,8.4
0.284,8.764
0.288,9.316
0.292,9.912
0.296,9.976
0.3,9.44
0.304,8.812
0.308,8.36
0.312,7.928
0.316,7.872
0.32,7.928
0.324,8.024
0.328,8.1
0.332,8.1
0.336,8.116
0.34,8.116
0.344,8.124
0.348,8.14
0.352,8.136
0.356,8.124
0.36,8.156
0.364,8.132
0.368,8.12
0.372,8.128
0.376,8.124
0.38,8.148
0.384,8.212
0.388,8.136
0.392,8.132
0.396,8.132
0.4,8.1
0.404,8.132
0.408,8.116
0.412,8.104
0.416,8.196
0.42,8.196
0.424,8.16
0.428,8.092
0.432,8.136
0.436,8.192
0.44,8.216
0.444,8.168
0.448,8.172
0.452,8.192
0.456,8.172
0.46,8.144
0.464,8.2
0.468,8.24
0.472,8.268
0.476,8.268
0.48,8.296
0.484,8.28
0.488,8.268
0.492,8.308
0.496,8.32
0.5,8.28
0.504,8.32
0.508,8.336
0.512,8.38
0.516,8.396
0.52,8.336
0.524,8.428
0.528,8.42
0.532,8.488
0.536,8.512
0.54,8.5
0.544,8.532
0.548,8.492
0.552,8.576
0.556,8.54
0.56,8.604
0.564,8.62
0.568,8.728
0.572,8.672
0.576,8.76
0.58,8.712
0.584,8.7
0.588,8.704
0.592,8.724
0.596,8.716
0.6,8.712
0.604,8.62
0.608,8.596
0.612,8.6
0.616,8.644
0.62,8.592
0.624,8.452
0.628,8.488
0.632,8.472
0.636,8.464
0.64,8.4
0.644,8.36
0.648,8.316
0.652,8.336
0.656,8.344
0.66,8.32
0.664,8.436
0.668,8.368
0.672,8.2
0.676,8.26
0.68,8.324
0.684,8.36
0.688,8.372
0.692,8.332
0.696,8.276
0.7,8.228
0.704,8.28
0.708,8.376
0.712,8.396
0.716,8.412
0.72,8.368
0.724,8.216
0.728,8.188
0.732,8.244
0.736,8.26
0.74,8.264
0.744,8.316
0.748,8.32
0.752,8.296
0.756,8.216
0.76,8.224
0.764,8.392
0.768,8.436
0.772,8.344
0.776,8.284
0.78,8.296
0.784,8.268
0.788,8.284
0.792,8.308
0.796,8.292
0.8,8.348
0.804,8.276
0.808,8.3
0.812,8.34
0.816,8.332
0.82,8.324
0.824,8.256
0.828,8.208
0.832,8.328
0.836,8.364
0.84,8.304
0.844,8.332
0.848,8.392
0.852,8.332
0.856,8.256
0.86,8.252
0.864,8.288
0.868,8.276
0.872,8.36
0.876,8.392
0.88,8.364
0.884,8.316
0.888,8.24
0.892,8.316
0.896,8.324
0.9,8.332
0.904,8.348
0.908,8.34
0.912,8.316
0.916,8.296
0.92,8.256
0.924,8.28
0.928,8.272
0.932,8.316
0.936,8.276
0.94,8.28
0.944,8.28
0.948,8.308
0.952,8.348
0.956,8.308
0.96,8.276
0.964,8.264
0.968,8.316
0.972,8.32
0.976,8.32
0.98,8.308
0.984,8.328
0.988,8.276
0.992,8.256
0.996,8.28
1,8.296
1.004,8.264
1.008,8.284
1.012,8.264
1.016,8.332
1.02,8.328
1.024,8.276
1.028,8.264
1.032,8.256
1.036,8.328
1.04,8.348
1.044,8.344
1.048,8.296
1.052,8.284
1.056,8.256
1.06,8.312
1.064,8.336
1.068,8.376
1.072,8.372
1.076,8.36
1.08,8.364
1.084,8.372
1.088,8.372
1.092,8.408
1.096,8.512
1.1,8.464
1.104,8.48
1.108,8.484
1.112,8.54
1.116,8.648
1.12,8.68
1.124,8.628
1.128,8.568
1.132,8.556
1.136,8.544
1.14,8.472
1.144,8.464
1.148,8.436
1.152,8.328
1.156,8.252
1.16,8.256
1.164,8.292
1.168,8.228
1.172,8.184
1.176,8.188
1.18,8.16
1.184,8.1
1.188,8.108
1.192,8.116
1.196,8.104
1.2,8.148
1.204,8.112
1.208,8.16
1.212,8.132
1.216,8.112
1.22,8.144
1.224,8.14
1.228,8.132
1.232,8.16
1.236,8.192
1.24,8.3
1.244,8.508
1.248,8.872
1.252,9.404
1.256,9.968
1.26,10.016
1.264,9.388
1.268,8.8
1.272,8.392
1.276,8.004
1.28,7.856
1.284,7.884
1.288,8.02
1.292,8.112
1.296,8.108
1.3,8.16
1.304,8.156
1.308,8.152
1.312,8.096
1.316,8.124
1.32,8.116
1.324,8.128
1.328,8.144
1.332,8.172
1.336,8.148
1.34,8.112
1.344,8.132
1.348,8.18
1.352,8.196
1.356,8.148
1.36,8.052
1.364,8.068
1.368,8.12
1.372,8.14
1.376,8.084
1.38,8.164
1.384,8.124
1.388,8.176
1.392,8.192
1.396,8.16
1.4,8.132
1.404,8.164
1.408,8.144
1.412,8.14
1.416,8.144
1.42,8.136
1.424,8.176
1.428,8.188
1.432,8.188
1.436,8.128
1.44,8.168
1.444,8.172
1.448,8.244
1.452,8.216
1.456,8.204
1.46,8.304
1.464,8.26
1.468,8.228
1.472,8.264
1.476,8.216
1.48,8.24
1.484,8.312
1.488,8.34
1.492,8.34
1.496,8.348
1.5,8.296
1.504,8.376
1.508,8.396
1.512,8.46
1.516,8.464
1.52,8.512
1.524,8.524
1.528,8.508
1.532,8.548
1.536,8.516
1.54,8.468
1.544,8.52
1.548,8.572
1.552,8.552
1.556,8.524
1.56,8.476
1.564,8.496
1.568,8.496
1.572,8.452
1.576,8.444
1.58,8.388
1.584,8.356
1.588,8.376
1.592,8.312
1.596,8.264
1.6,8.248
1.604,8.22
1.608,8.164
1.612,8.192
1.616,8.172
1.62,8.212
1.624,8.14
1.628,8.124
1.632,8.144
1.636,8.128
1.64,8.088
1.644,8.112
1.648,8.128
1.652,8.104
1.656,8.116
1.66,8.112
1.664,8.108
1.668,8.104
1.672,8.088
1.676,8.08
1.68,8.06
1.684,8.044
1.688,8.088
1.692,8.092
1.696,8.056
1.7,8.06
1.704,8.08
1.708,8.096
1.712,8.08
1.716,8.072
1.72,8.036
1.724,8.044
1.728,8.052
1.732,8.072
1.736,8.08
1.74,8.088
1.744,8.08
1.748,8.1
1.752,8.084
1.756,8.072
1.76,8.12
1.764,8.108
1.768,8.06
1.772,8.072
1.776,8.124
1.78,8.152
1.784,8.128
1.788,8.128
1.792,8.112
1.796,8.124
1.8,8.12
1.804,8.176
1.808,8.136
1.812,8.088
1.816,8.148
1.82,8.192
1.824,8.26
1.828,8.204
1.832,8.144
1.836,8.076
1.84,8.112
1.844,8.076
1.848,8.04
1.852,8.012
1.856,8.068
1.86,8.132
1.864,7.96
1.868,7.9
1.872,8.108
1.876,8.428
1.88,8.404
1.884,8.1
1.888,7.916
1.892,7.976
1.896,8.16
1.9,8.336
1.904,8.328
1.908,8.028
1.912,7.772
1.916,7.876
1.92,7.98
1.924,8.084
1.928,8.084
1.932,8.1
1.936,8.188
1.94,8.22
1.944,8.048
1.948,7.964
1.952,7.984
1.956,8.232
1.96,8.396
1.964,8.3
1.968,8.188
1.972,8.284
1.976,8.104
1.98,7.98
1.984,7.996
1.988,8.012
1.992,7.968
1.996,7.96
2,7.944
2.004,7.872
2.008,7.996
2.012,8.12
2.016,8.232
2.02,8.212
2.024,8.276
2.028,8.26
2.032,8.288
2.036,8.352
2.04,8.364
2.044,8.588
2.048,8.504
2.052,8.24
2.056,8.212
2.06,8.332
2.064,8.452
2.068,8.4
2.072,8.164
2.076,8.088
2.08,8.256
2.084,8.356
2.088,8.252
2.092,8.256
2.096,8.188
2.1,8.052
2.104,7.88
2.108,7.888
2.112,7.864
2.116,7.936
2.12,8.212
2.124,8.256
2.128,7.964
2.132,7.784
2.136,7.924
2.14,7.94
2.144,7.864
2.148,7.784
2.152,7.788
2.156,7.736
2.16,7.796
2.164,7.884
2.168,7.944
2.172,8.08
2.176,7.992
2.18,8.1
2.184,8.504
2.188,8.944
2.192,9.656
2.196,10.272
2.2,10.132
2.204,9.256
2.208,8.392
2.212,7.82
2.216,7.556
2.22,7.672
2.224,7.66
2.228,7.772
2.232,8.004
2.236,8.076
2.24,8.036
2.244,7.996
2.248,7.828
2.252,7.708
2.256,7.78
2.26,7.968
2.264,7.984
2.268,7.928
2.272,7.936
2.276,7.972
2.28,8.076
2.284,8.016
2.288,7.716
2.292,7.772
2.296,8.068
2.3,8.08
2.304,7.916
2.308,7.86
2.312,8.016
2.316,8.308
2.32,8.088
2.324,7.792
2.328,7.752
2.332,7.936
2.336,8.028
2.34,7.92
2.344,7.748
2.348,7.792
2.352,7.928
2.356,8.068
2.36,8.064
2.364,8.036
2.368,7.952
2.372,7.928
2.376,8.052
2.38,8.032
2.384,8.192
2.388,8.412
2.392,8.232
2.396,7.984
2.4,7.968
2.404,8.028
2.408,8.032
2.412,7.992
2.416,8.148
2.42,8.204
2.424,8.204
2.428,8.2
2.432,8.192
2.436,8.292
2.44,8.316
2.444,8.356
2.448,8.496
2.452,8.148
2.456,8.068
2.46,8.256
2.464,8.292
2.468,8.288
2.472,8.272
2.476,8.336
2.48,8.42
2.484,8.372
2.488,8.528
2.492,8.736
2.496,8.652
2.5,8.404
2.504,8.204
2.508,8.112
2.512,8.184
2.516,8.252
2.52,8.284
2.524,8.248
2.528,8.136
2.532,8.204
2.536,8.192
2.54,8.244
2.544,8.16
2.548,8.084
2.552,7.988
2.556,7.852
2.56,7.84
2.564,7.816
2.568,8.088
2.572,8.216
2.576,8.112
2.58,7.968
2.584,7.912
2.588,7.852
2.592,7.868
2.596,7.892
2.6,7.94
2.604,7.996
2.608,8.04
2.612,7.924
2.616,7.936
2.62,8.06
2.624,8.144
2.628,7.868
2.632,7.876
2.636,7.94
2.64,7.992
2.644,8.028
2.648,7.936
2.652,7.94
2.656,7.936
2.66,7.896
2.664,7.888
2.668,7.876
2.672,7.884
2.676,7.932
2.68,7.932
2.684,7.972
2.688,8.012
2.692,8.024
2.696,8.088
2.7,8.092
2.704,8.036
2.708,8.068
2.712,8.032
2.716,8.048
2.72,7.92
2.724,7.852
2.728,7.896
2.732,8.096
2.736,8.028
2.74,8.128
2.744,8.128
2.748,7.888
2.752,7.832
2.756,7.892
2.76,7.848
2.764,7.988
2.768,8.004
2.772,8.008
2.776,7.976
2.78,7.976
2.784,7.984
2.788,8.104
2.792,8.136
2.796,8
2.8,7.924
2.804,8.016
2.808,8.06
2.812,7.968
2.816,7.924
2.82,7.948
2.824,7.98
2.828,7.928
2.832,7.984
2.836,8.024
2.84,7.976
2.844,7.932
2.848,7.932
2.852,7.988
2.856,8.18
2.86,8.22
2.864,7.964
2.868,7.816
2.872,7.824
2.876,7.916
2.88,7.948
2.884,7.948
2.888,7.956
2.892,7.94
2.896,7.976
2.9,8.008
2.904,7.98
2.908,7.984
2.912,7.98
2.916,7.972
2.92,7.988
2.924,8.036
2.928,8.04
2.932,8.016
2.936,7.948
2.94,7.968
2.944,7.972
2.948,7.944
2.952,7.948
2.956,8.024
2.96,8.016
2.964,8.028
2.968,8.14
2.972,8.192
2.976,8.04
2.98,7.9
2.984,8.008
2.988,8.116
2.992,8.064
2.996,8.08
3,8.16
3.004,8.2
3.008,8.252
3.012,8.316
3.016,8.324
3.02,8.268
3.024,8.28
3.028,8.276
3.032,8.272
3.036,8.248
3.04,8.188
3.044,8.176
3.048,8.088
3.052,8.02
3.056,7.948
3.06,7.968
3.064,7.936
3.068,7.94
3.072,7.916
3.076,7.928
3.08,7.932
3.084,7.956
3.088,7.916
3.092,7.956
3.096,7.992
3.1,7.856
3.104,7.76
3.108,7.82
3.112,7.856
3.116,7.916
3.12,7.828
3.124,7.9
3.128,7.912
3.132,8.004
3.136,8.116
3.14,8.3
3.144,8.692
3.148,9.308
3.152,9.88
3.156,9.928
3.16,9.268
3.164,8.608
3.168,8.084
3.172,7.672
3.176,7.688
3.18,7.752
3.184,7.848
3.188,7.908
3.192,7.944
3.196,7.944
3.2,7.964
3.204,7.952
3.208,7.992
3.212,7.972
3.216,8
3.22,8.036
3.224,7.964
3.228,8.056
3.232,8.104
3.236,8.012
3.24,7.96
3.244,7.956
3.248,7.972
3.252,8.02
3.256,8.008
3.26,8.044
3.264,8.024
3.268,7.948
3.272,7.98
3.276,8.008
3.28,7.984
3.284,8.016
3.288,8.008
3.292,8.072
3.296,8.076
3.3,8.064
3.304,8.012
3.308,8.112
3.312,8.092
3.316,8.124
3.32,8.116
3.324,8.08
3.328,8.072
3.332,8.088
3.336,8.112
3.34,8.156
3.344,8.144
3.348,8.144
3.352,8.184
3.356,8.18
3.36,8.168
3.364,8.176
3.368,8.184
3.372,8.208
3.376,8.28
3.38,8.268
3.384,8.284
3.388,8.288
3.392,8.332
3.396,8.28
3.4,8.36
3.404,8.384
3.408,8.432
3.412,8.432
3.416,8.488
3.42,8.44
3.424,8.4
3.428,8.492
3.432,8.524
3.436,8.512
3.44,8.504
3.444,8.536
3.448,8.532
3.452,8.524
3.456,8.456
3.46,8.444
3.464,8.456
3.468,8.4
3.472,8.364
3.476,8.416
3.48,8.312
3.484,8.308
3.488,8.312
3.492,8.308
3.496,8.284
3.5,8.224
3.504,8.132
3.508,8.104
3.512,8.044
3.516,8.1
3.52,8.108
3.524,8.104
3.528,8.076
3.532,8.056
3.536,8.092
3.54,8.12
3.544,8.064
3.548,8.036
3.552,8.052
3.556,8.044
3.56,8.068
3.564,8.064
3.568,8.08
3.572,8.032
3.576,8.06
3.58,8.064
3.584,8.04
3.588,7.984
3.592,8.096
3.596,8.068
3.6,8.04
3.604,8.012
3.608,8.052
3.612,8.024
3.616,8.044
3.62,8.052
3.624,8.048
3.628,8.068
3.632,8.004
3.636,8.052
3.64,8.06
3.644,8.064
3.648,8.112
3.652,8.1
3.656,8.064
3.66,8.004
3.664,8.032
3.668,8.048
3.672,8.036
3.676,8.092
3.68,8.04
3.684,8.044
3.688,8.08
3.692,8.104
3.696,7.988
3.7,8.08
3.704,8.06
3.708,8.072
3.712,8.064
3.716,8.036
3.72,8.02
3.724,8.044
3.728,8.072
3.732,8.056
3.736,8.016
3.74,8
3.744,8.048
3.748,8.068
3.752,8.044
3.756,8.012
3.76,8.036
3.764,8.016
3.768,8.016
3.772,7.976
3.776,8.036
3.78,7.992
3.784,8.044
3.788,8.012
3.792,8.044
3.796,8.036
3.8,8.084
3.804,7.96
3.808,7.988
3.812,7.984
3.816,8.012
3.82,8.024
3.824,7.976
3.828,8.02
3.832,8.004
3.836,8.004
3.84,8.004
3.844,7.992
3.848,8.008
3.852,8
3.856,7.916
3.86,8.008
3.864,8.024
3.868,8.044
3.872,8.04
3.876,8.04
3.88,7.972
3.884,7.96
3.888,7.912
3.892,7.992
3.896,8.032
3.9,7.968
3.904,7.94
3.908,7.988
3.912,8.032
3.916,8.012
3.92,8.016
3.924,8.124
3.928,8.1
3.932,8.092
3.936,8.088
3.94,8.12
3.944,8.16
3.948,8.164
3.952,8.224
3.956,8.224
3.96,8.332
3.964,8.34
3.968,8.324
3.972,8.272
3.976,8.332
3.98,8.24
3.984,8.22
3.988,8.16
3.992,8.144
3.996,8.104
4,8.032
4.004,7.984
4.008,7.924
4.012,7.88
4.016,7.924
4.02,7.908
4.024,7.82
4.028,7.876
4.032,7.884
4.036,7.868
4.04,7.828
4.044,7.876
4.048,7.872
4.052,7.868
4.056,7.836
4.06,7.9
4.064,7.888
4.068,7.864
4.072,7.864
4.076,7.832
4.08,7.964
4.084,8.128
4.088,8.396
4.092,8.876
4.096,9.54
4.1,10.124
4.104,10.092
4.108,9.276
4.112,8.556
4.116,8.032
4.12,7.764
4.124,7.672
4.128,7.736
4.132,7.828
4.136,7.872
4.14,7.876
4.144,7.904
4.148,7.924
4.152,7.948
4.156,7.884
4.16,7.972
4.164,7.872
4.168,7.924
4.172,7.912
4.176,7.956
4.18,7.932
4.184,7.948
4.188,7.916
4.192,7.996
4.196,7.984
4.2,7.968
4.204,7.952
4.208,7.964
4.212,7.916
4.216,7.932
4.22,7.944
4.224,7.944
4.228,7.96
4.232,7.952
4.236,7.964
4.24,7.908
4.244,8.012
4.248,8
4.252,8.012
4.256,8.012
4.26,8.044
4.264,7.98
4.268,7.98
4.272,8.064
4.276,8.104
4.28,8.008
4.284,8
4.288,8.036
4.292,8.08
4.296,8.084
4.3,8.12
4.304,8.092
4.308,8.096
4.312,8.12
4.316,8.156
4.32,8.124
4.324,8.164
4.328,8.204
4.332,8.236
4.336,8.228
4.34,8.268
4.344,8.344
4.348,8.26
4.352,8.304
4.356,8.312
4.36,8.38
4.364,8.38
4.368,8.452
4.372,8.428
4.376,8.408
4.38,8.48
4.384,8.512
4.388,8.452
4.392,8.424
4.396,8.428
4.4,8.4
4.404,8.424
4.408,8.348
4.412,8.34
4.416,8.356
4.42,8.348
4.424,8.268
4.428,8.312
4.432,8.236
4.436,8.248
4.44,8.168
4.444,8.128
4.448,8.148
4.452,8.108
4.456,8.068
4.46,8.084
4.464,8.068
4.468,8.08
4.472,8.036
4.476,8.044
4.48,8.028
4.484,8.024
4.488,8.06
4.492,8.052
4.496,8.016
4.5,8.028
4.504,8.016
4.508,8.024
4.512,8.04
4.516,7.996
4.52,7.98
4.524,8.004
4.528,8.024
4.532,8
4.536,7.996
4.54,7.984
4.544,8.008
4.548,8.012
4.552,7.988
4.556,8.024
4.56,8.072
4.564,8.04
4.568,8.06
4.572,8.052
4.576,8.008
4.58,8.036
4.584,8.02
4.588,8.012
4.592,8.02
4.596,8.06
4.6,8.06
4.604,8.048
4.608,8.032
4.612,8.084
4.616,8.08
4.62,8.04
4.624,8
4.628,8.052
4.632,8.064
4.636,8.004
4.64,8.032
4.644,8.096
4.648,8.052
4.652,8.076
4.656,8.068
4.66,8.12
4.664,8.056
4.668,8.02
4.672,8.008
4.676,8.032
4.68,8.024
4.684,8.036
4.688,8.008
4.692,8.02
4.696,8.06
4.7,8.04
4.704,8.028
4.708,7.996
4.712,8.06
4.716,8.04
4.72,8.06
4.724,8.036
4.728,8.092
4.732,8.044
4.736,8.052
4.74,8.032
4.744,8.04
4.748,8.012
4.752,8.02
4.756,8
4.76,8.048
4.764,8.032
4.768,7.98
4.772,7.976
4.776,8.048
4.78,8.06
4.784,7.984
4.788,7.992
4.792,8
4.796,7.996
4.8,8.016
4.804,8.008
4.808,8.012
4.812,8.032
4.816,8.032
4.82,8.036
4.824,7.992
4.828,8.036
4.832,8.028
4.836,8.012
4.84,8.02
4.844,8.052
4.848,8.032
4.852,8.016
4.856,8.016
4.86,8.04
4.864,8.068
4.868,8.024
4.872,7.98
4.876,7.984
4.88,8.056
4.884,8.076
4.888,8.064
4.892,8.12
4.896,8.148
4.9,8.152
4.904,8.176
4.908,8.204
4.912,8.22
4.916,8.304
4.92,8.308
4.924,8.316
4.928,8.38
4.932,8.336
4.936,8.328
4.94,8.304
4.944,8.332
4.948,8.26
4.952,8.252
4.956,8.148
4.96,8.1
4.964,8.08
4.968,8.044
4.972,8.004
4.976,7.992
4.98,7.96
4.984,7.936
4.988,7.94
4.992,7.936
4.996,7.964
5,7.924
5.004,7.908
5.008,7.864
5.012,7.912
5.016,7.888
5.02,7.888
5.024,7.88
5.028,7.916
5.032,7.912
5.036,7.944
5.04,7.928
5.044,8.004
5.048,8.124
5.052,8.32
5.056,8.664
5.06,9.244
5.064,9.872
5.068,9.98
5.072,9.356
5.076,8.716
5.08,8.212
5.084,7.704
5.088,7.624
5.092,7.764
5.096,7.868
5.1,7.908
5.104,7.928
5.108,7.924
5.112,7.944
5.116,7.952
5.12,7.96
5.124,7.944
5.128,7.936
5.132,7.952
5.136,7.996
5.14,7.988
5.144,7.984
5.148,7.964
5.152,7.968
5.156,7.948
5.16,7.916
5.164,7.972
5.168,7.988
5.172,7.992
5.176,7.992
5.18,8.048
5.184,8.024
5.188,7.94
5.192,7.956
5.196,7.98
5.2,7.968
5.204,7.976
5.208,7.992
5.212,8.02
5.216,8.028
5.22,8.008
5.224,8.004
5.228,8.052
5.232,8.06
5.236,8.084
5.24,8.068
5.244,8.068
5.248,8.092
5.252,8.076
5.256,8.064
5.26,8.064
5.264,8.12
5.268,8.144
5.272,8.16
5.276,8.192
5.28,8.188
5.284,8.18
5.288,8.132
5.292,8.176
5.296,8.224
5.3,8.224
5.304,8.248
5.308,8.268
5.312,8.312
5.316,8.344
5.32,8.344
5.324,8.384
5.328,8.424
5.332,8.444
5.336,8.432
5.34,8.396
5.344,8.408
5.348,8.44
5.352,8.42
5.356,8.436
5.36,8.444
5.364,8.456
5.368,8.42
5.372,8.396
5.376,8.4
5.38,8.388
5.384,8.332
5.388,8.3
5.392,8.288
5.396,8.284
5.4,8.32
5.404,8.188
5.408,8.124
5.412,8.172
5.416,8.16
5.42,8.108
5.424,8.032
5.428,8.08
5.432,8.068
5.436,8.08
5.44,8.052
5.444,8.06
5.448,8.072
5.452,8.02
5.456,7.996
5.46,8.048
5.464,8.048
5.468,8.056
5.472,8.016
5.476,8.028
5.48,8.084
5.484,8.052
5.488,8.02
5.492,7.992
5.496,8.012
5.5,8.016
5.504,8.016
5.508,8
5.512,8.008
5.516,8.02
5.52,8.04
5.524,8.044
5.528,8.036
5.532,8.008
5.536,8.032
5.54,8.068
5.544,8.072
5.548,8.072
5.552,8.056
5.556,8.004
5.56,8.02
5.564,8.068
5.568,8.072
5.572,8.032
5.576,8.032
5.58,8.04
5.584,8.08
5.588,8.008
5.592,8.028
5.596,8.036
5.6,8.044
5.604,8.048
5.608,8.064
5.612,8.076
5.616,8.1
5.62,8.04
5.624,8.004
5.628,8.036
5.632,8.032
5.636,8.016
5.64,8.04
5.644,8.08
5.648,8.1
5.652,8.068
5.656,8.008
5.66,8.036
5.664,8.072
5.668,8.052
5.672,8.048
5.676,8.036
5.68,8.012
5.684,7.992
5.688,7.992
5.692,8.016
5.696,8.032
5.7,8.024
5.704,7.992
5.708,7.968
5.712,8.02
5.716,8.04
5.72,8.024
5.724,7.988
5.728,7.984
5.732,8.024
5.736,8.012
5.74,7.98
5.744,8.004
5.748,8.024
5.752,8.048
5.756,7.996
5.76,8
5.764,8.036
5.768,8.012
5.772,7.992
5.776,8.02
5.78,8.028
5.784,8
5.788,8.008
5.792,8
5.796,8.016
5.8,8.044
5.804,8.016
5.808,7.988
5.812,7.976
5.816,8.032
5.82,8.032
5.824,8.012
5.828,7.992
5.832,8.024
5.836,8.028
5.84,8.004
5.844,7.996
5.848,8.008
5.852,8.064
5.856,8.096
5.86,8.2
5.864,8.208
5.868,8.136
5.872,8.104
5.876,8.132
5.88,8.18
5.884,8.22
5.888,8.292
5.892,8.34
5.896,8.356
5.9,8.368
5.904,8.344
5.908,8.324
5.912,8.3
5.916,8.268
5.92,8.192
5.924,8.132
5.928,8.12
5.932,8.096
5.936,8.02
5.94,7.964
5.944,8
5.948,7.988
5.952,7.984
5.956,7.908
5.96,7.936
5.964,7.944
5.968,7.936
5.972,7.892
5.976,7.896
5.98,7.888
5.984,7.884
5.988,7.856
5.992,7.86
5.996,7.888
6,7.88
6.004,7.912
6.008,7.956
6.012,7.988
6.016,8.036
6.02,8.252
6.024,8.528
6.028,9.12
6.032,9.8
6.036,9.968
6.04,9.444
6.044,8.736
6.048,8.168
6.052,7.728
6.056,7.608
6.06,7.756
6.064,7.84
6.068,7.908
6.072,7.892
6.076,7.92
6.08,7.944
6.084,7.98
6.088,7.936
6.092,7.96
6.096,7.968
6.1,8
6.104,7.964
6.108,7.932
6.112,7.96
6.116,7.964
6.12,7.964
6.124,7.92
6.128,7.96
6.132,7.992
6.136,7.988
6.14,7.944
6.144,7.924
6.148,7.964
6.152,7.992
6.156,7.94
6.16,7.996
6.164,8.024
6.168,8.004
6.172,7.948
6.176,8
6.18,7.996
6.184,7.988
6.188,7.988
6.192,8.024
6.196,8.056
6.2,8.064
6.204,8.036
6.208,8.012
6.212,8.04
6.216,8.04
6.22,8.072
6.224,8.08
6.228,8.08
6.232,8.104
6.236,8.132
6.24,8.156
6.244,8.148
6.248,8.164
6.252,8.196
6.256,8.172
6.26,8.196
6.264,8.236
6.268,8.244
6.272,8.24
6.276,8.276
6.28,8.332
6.284,8.36
6.288,8.336
6.292,8.312
6.296,8.348
6.3,8.372
6.304,8.416
6.308,8.428
6.312,8.428
6.316,8.46
6.32,8.464
6.324,8.448
6.328,8.436
6.332,8.412
6.336,8.412
6.34,8.364
6.344,8.36
6.348,8.376
6.352,8.356
6.356,8.296
6.36,8.256
6.364,8.252
6.368,8.232
6.372,8.188
6.376,8.192
6.38,8.156
6.384,8.14
6.388,8.096
6.392,8.112
6.396,8.088
6.4,8.04
6.404,8.044
6.408,8.02
6.412,8.016
6.416,8.044
6.42,8.032
6.424,8.028
6.428,8.048
6.432,8.028
6.436,8.024
6.44,7.956
6.444,7.944
6.448,8
6.452,8.008
6.456,7.988
6.46,8
6.464,8.016
6.468,7.976
6.472,7.936
6.476,7.992
6.48,7.98
6.484,7.968
6.488,7.996
6.492,7.972
6.496,7.964
6.5,7.988
6.504,7.972
6.508,7.948
6.512,7.992
6.516,7.996
6.52,8.02
6.524,7.984
6.528,7.988
6.532,7.992
6.536,7.988
6.54,7.956
6.544,8.008
6.548,8.032
6.552,8.012
6.556,7.96
6.56,8.012
6.564,8.016
6.568,8.012
6.572,7.992
6.576,7.988
6.58,8
6.584,7.964
6.588,7.992
6.592,8.008
6.596,8.016
6.6,7.996
6.604,7.968
6.608,7.944
6.612,7.94
6.616,7.992
6.62,7.988
6.624,7.952
6.628,7.952
6.632,8
6.636,7.964
6.64,7.972
6.644,7.944
6.648,7.96
6.652,7.972
6.656,7.972
6.66,7.96
6.664,8.008
6.668,7.996
6.672,7.94
6.676,7.912
6.68,7.9
6.684,7.928
6.688,7.936
6.692,7.972
6.696,7.928
6.7,7.932
6.704,7.968
6.708,7.964
6.712,7.956
6.716,7.948
6.72,7.948
6.724,7.924
6.728,7.948
6.732,7.98
6.736,7.988
6.74,7.94
6.744,7.944
6.748,7.944
6.752,7.98
6.756,7.924
6.76,7.908
6.764,7.94
6.768,7.944
6.772,7.948
6.776,7.972
6.78,7.92
6.784,7.86
6.788,7.9
6.792,7.924
6.796,7.92
6.8,7.944
6.804,7.956
6.808,7.92
6.812,7.956
6.816,8.004
6.82,8.032
6.824,8.02
6.828,8.032
6.832,8.044
6.836,8.06
6.84,8.056
6.844,8.108
6.848,8.2
6.852,8.236
6.856,8.272
6.86,8.244
6.864,8.248
6.868,8.22
6.872,8.192
6.876,8.224
6.88,8.22
6.884,8.124
6.888,8.1
6.892,8.08
6.896,7.992
6.9,7.924
6.904,7.896
6.908,7.824
6.912,7.836
6.916,7.9
6.92,7.86
6.924,7.804
6.928,7.76
6.932,7.804
6.936,7.796
6.94,7.784
6.944,7.788
6.948,7.8
6.952,7.776
6.956,7.76
6.96,7.776
6.964,7.804
6.968,7.832
6.972,7.74
6.976,7.852
6.98,8
6.984,8.252
6.988,8.648
6.992,9.312
6.996,9.952
7,10.124
7.004,9.436
7.008,8.688
7.012,8.076
7.016,7.704
7.02,7.596
7.024,7.628
7.028,7.736
7.032,7.836
7.036,7.844
7.04,7.836
7.044,7.84
7.048,7.856
7.052,7.84
7.056,7.824
7.06,7.852
7.064,7.88
7.068,7.9
7.072,7.856
7.076,7.864
7.08,7.884
7.084,7.896
7.088,7.852
7.092,7.824
7.096,7.844
7.1,7.936
7.104,7.832
7.108,7.836
7.112,7.86
7.116,7.904
7.12,7.88
7.124,7.852
7.128,7.892
7.132,7.936
7.136,7.952
7.14,7.896
7.144,7.912
7.148,7.98
7.152,8.012
7.156,7.924
7.16,7.928
7.164,7.944
7.168,8.016
7.172,7.932
7.176,7.952
7.18,7.98
7.184,8.084
7.188,8.024
7.192,7.972
7.196,7.972
7.2,8.08
7.204,8.06
7.208,8.044
7.212,8.06
7.216,8.124
7.22,8.148
7.224,8.14
7.228,8.144
7.232,8.196
7.236,8.24
7.24,8.196
7.244,8.22
7.248,8.252
7.252,8.332
7.256,8.3
7.26,8.316
7.264,8.336
7.268,8.384
7.272,8.332
7.276,8.384
7.28,8.396
7.284,8.448
7.288,8.352
7.292,8.388
7.296,8.36
7.3,8.4
7.304,8.352
7.308,8.272
7.312,8.24
7.316,8.328
7.32,8.304
7.324,8.244
7.328,8.176
7.332,8.18
7.336,8.188
7.34,8.076
7.344,8.048
7.348,8.052
7.352,8.088
7.356,8.016
7.36,8.004
7.364,8.016
7.368,8.064
7.372,7.98
7.376,7.984
7.38,7.964
7.384,8.04
7.388,7.976
7.392,7.976
7.396,7.916
7.4,8.016
7.404,7.988
7.408,7.916
7.412,7.924
7.416,8.012
7.42,7.984
7.424,7.932
7.428,7.9
7.432,8.032
7.436,8.048
7.44,7.9
7.444,7.9
7.448,7.976
7.452,7.984
7.456,7.936
7.46,7.936
7.464,7.972
7.468,8.036
7.472,8.004
7.476,7.98
7.48,7.956
7.484,8.036
7.488,7.968
7.492,7.96
7.496,7.956
7.5,8.052
7.504,8.092
7.508,8.072
7.512,8.024
7.516,8.028
7.52,8.024
7.524,7.992
7.528,7.912
7.532,7.952
7.536,8.06
7.54,7.964
7.544,7.996
7.548,8.004
7.552,8.068
7.556,8.012
7.56,8.02
7.564,8.024
7.568,8.032
7.572,7.968
7.576,7.96
7.58,7.956
7.584,8.052
7.588,8.016
7.592,8.016
7.596,7.964
7.6,8.016
7.604,7.992
7.608,7.944
7.612,7.964
7.616,8.072
7.62,7.96
7.624,7.96
7.628,7.964
7.632,7.988
7.636,8.028
7.64,8.02
7.644,7.988
7.648,8
7.652,8.036
7.656,7.976
7.66,8.02
7.664,8.016
7.668,8.06
7.672,7.964
7.676,8.036
7.68,7.98
7.684,8.064
7.688,8.028
7.692,7.992
7.696,7.948
7.7,8.056
7.704,8.036
7.708,7.992
7.712,7.96
7.716,8.012
7.72,8.04
7.724,7.976
7.728,7.96
7.732,8.04
7.736,8.032
7.74,7.98
7.744,8.032
7.748,8.016
7.752,8.024
7.756,7.936
7.76,8.004
7.764,7.992
7.768,8.056
7.772,8.028
7.776,8.02
7.78,7.972
7.784,8.084
7.788,8.072
7.792,8.04
7.796,8.028
7.8,8.14
7.804,8.148
7.808,8.096
7.812,8.108
7.816,8.22
7.82,8.228
7.824,8.224
7.828,8.26
7.832,8.336
7.836,8.384
7.84,8.34
7.844,8.344
7.848,8.3
7.852,8.316
7.856,8.22
7.86,8.204
7.864,8.14
7.868,8.172
7.872,8.096
7.876,8
7.88,7.996
7.884,7.996
7.888,7.968
7.892,7.948
7.896,7.912
7.9,7.98
7.904,7.956
7.908,7.872
7.912,7.892
7.916,7.936
7.92,7.936
7.924,7.9
7.928,7.836
7.932,7.9
7.936,7.904
7.94,7.884
7.944,7.924
7.948,7.92
7.952,7.996
7.956,8.092
7.96,8.272
7.964,8.508
7.968,9.052
7.972,9.696
7.976,10.004
7.98,9.612
7.984,8.864
7.988,8.316
7.992,7.776
7.996,7.608
8,7.756
8.004,7.804
8.008,7.848
8.012,7.924
8.016,8.016
8.02,7.976
8.024,7.948
8.028,7.92
8.032,7.924
8.036,7.976
8.04,7.948
8.044,7.94
8.048,7.968
8.052,7.996
8.056,7.992
8.06,7.996
8.064,7.932
8.068,7.976
8.072,7.936
8.076,7.964
8.08,7.992
8.084,8.052
8.088,8.004
8.092,7.988
8.096,7.972
8.1,8.016
8.104,8.012
8.108,8.012
8.112,8.032
8.116,8.044
8.12,8.052
8.124,8.024
8.128,8.056
8.132,8.072
8.136,8.024
8.14,8.004
8.144,8.076
8.148,8.104
8.152,8.1
8.156,8.06
8.16,8.116
8.164,8.064
8.168,8.12
8.172,8.14
8.176,8.136
8.18,8.16
8.184,8.22
8.188,8.196
8.192,8.192
8.196,8.176
8.2,8.236
8.204,8.228
8.208,8.244
8.212,8.236
8.216,8.316
8.22,8.364
8.224,8.324
8.228,8.372
8.232,8.388
8.236,8.44
8.24,8.396
8.244,8.428
8.248,8.456
8.252,8.456
8.256,8.412
8.26,8.484
8.264,8.476
8.268,8.488
8.272,8.456
8.276,8.452
8.28,8.448
8.284,8.456
8.288,8.416
8.292,8.36
8.296,8.36
8.3,8.352
8.304,8.284
8.308,8.22
8.312,8.212
8.316,8.252
8.32,8.208
8.324,8.148
8.328,8.148
8.332,8.132
8.336,8.144
8.34,8.092
8.344,8.08
8.348,8.076
8.352,8.076
8.356,8.072
8.36,8.088
8.364,8.068
8.368,8.08
8.372,8.068
8.376,8.08
8.38,8.108
8.384,8.072
8.388,8.028
8.392,8.048
8.396,8.104
8.4,8.124
8.404,8.032
8.408,8
8.412,8.012
8.416,8.052
8.42,8.016
8.424,8.036
8.428,8.068
8.432,8.064
8.436,8.052
8.44,8.032
8.444,8.08
8.448,8.036
8.452,8.084
8.456,8.048
8.46,8.092
8.464,8.076
8.468,8.092
8.472,8.056
8.476,8.052
8.48,8.096
8.484,8.124
8.488,8.088
8.492,8.06
8.496,8.064
8.5,8.08
8.504,8.068
8.508,8.056
8.512,8.096
8.516,8.08
8.52,8.068
8.524,8.08
8.528,8.124
8.532,8.12
8.536,8.096
8.54,8.048
8.544,8.036
8.548,8.036
8.552,8.08
8.556,8.052
8.56,8.032
8.564,8.036
8.568,8.092
8.572,8.104
8.576,8.08
8.58,8.068
8.584,8.096
8.588,8.076
8.592,8.028
8.596,8.048
8.6,8.068
8.604,8.068
8.608,8.052
8.612,8.052
8.616,8.052
8.62,8.064
8.624,8.04
8.628,8.048
8.632,8.064
8.636,8.112
8.64,8.044
8.644,8.084
8.648,8.06
8.652,8.072
8.656,8.04
8.66,8.02
8.664,8.012
8.668,8.064
8.672,8.08
8.676,8.096
8.68,8.028
8.684,8.012
8.688,8.032
8.692,7.996
8.696,8.016
8.7,8.06
8.704,8.06
8.708,8.04
8.712,8.028
8.716,8.052
8.72,8.04
8.724,8.016
8.728,8.032
8.732,8.02
8.736,8.068
8.74,8.036
8.744,8.036
8.748,8.04
8.752,8.088
8.756,8.068
8.76,8.056
8.764,8.004
8.768,8.036
8.772,8.072
8.776,8.144
8.78,8.2
8.784,8.212
8.788,8.16
8.792,8.168
8.796,8.204
8.8,8.256
8.804,8.296
8.808,8.296
8.812,8.328
8.816,8.368
8.82,8.392
8.824,8.364
8.828,8.348
8.832,8.336
8.836,8.316
8.84,8.256
8.844,8.22
8.848,8.156
8.852,8.136
8.856,8.08
8.86,8.024
8.864,8
8.868,8.02
8.872,8.012
8.876,7.992
8.88,7.948
8.884,7.94
8.888,7.956
8.892,7.916
8.896,7.876
8.9,7.944
8.904,7.976
8.908,7.948
8.912,7.952
8.916,7.948
8.92,7.96
8.924,7.948
8.928,7.956
8.932,8.008
8.936,8.092
8.94,8.26
8.944,8.592
8.948,9.076
8.952,9.744
8.956,10.028
8.96,9.568
8.964,8.772
8.968,8.32
8.972,7.836
8.976,7.624
8.98,7.712
8.984,7.832
8.988,7.944
8.992,7.984
8.996,7.956
9,7.988
9.004,7.968
9.008,7.968
9.012,7.98
9.016,7.984
9.02,8.024
9.024,7.96
9.028,7.964
9.032,8.008
9.036,8.02
9.04,7.984
9.044,7.976
9.048,7.98
9.052,7.992
9.056,8.016
9.06,8.036
9.064,8.012
9.068,8.056
9.072,8.02
9.076,7.984
9.08,7.992
9.084,8
9.088,8.02
9.092,8.024
9.096,8.032
9.1,8.096
9.104,8.06
9.108,8.012
9.112,8.036
9.116,8.068
9.12,8.12
9.124,8.076
9.128,8.072
9.132,8.12
9.136,8.112
9.14,8.096
9.144,8.14
9.148,8.14
9.152,8.176
9.156,8.132
9.16,8.172
9.164,8.168
9.168,8.216
9.172,8.172
9.176,8.18
9.18,8.204
9.184,8.284
9.188,8.312
9.192,8.292
9.196,8.308
9.2,8.348
9.204,8.36
9.208,8.34
9.212,8.356
9.216,8.44
9.22,8.464
9.224,8.436
9.228,8.444
9.232,8.488
9.236,8.468
9.24,8.428
9.244,8.484
9.248,8.508
9.252,8.504
9.256,8.464
9.26,8.432
9.264,8.424
9.268,8.412
9.272,8.372
9.276,8.332
9.28,8.288
9.284,8.312
9.288,8.264
9.292,8.248
9.296,8.228
9.3,8.18
9.304,8.16
9.308,8.112
9.312,8.108
9.316,8.096
9.32,8.104
9.324,8.052
9.328,8.096
9.332,8.104
9.336,8.104
9.34,8.044
9.344,8.04
9.348,8.02
9.352,8.052
9.356,7.992
9.36,7.984
9.364,8.032
9.368,8.036
9.372,8.024
9.376,8.012
9.38,8.024
9.384,7.996
9.388,7.988
9.392,8
9.396,8.008
9.4,8.048
9.404,8.064
9.408,8.016
9.412,8.008
9.416,8
9.42,8.02
9.424,7.964
9.428,7.984
9.432,8
9.436,8.052
9.44,8.016
9.444,8.04
9.448,8.024
9.452,8.032
9.456,8.008
9.46,8.016
9.464,8.028
9.468,8.044
9.472,8.036
9.476,8.008
9.48,8.008
9.484,8.04
9.488,8.02
9.492,8.004
9.496,8
9.5,8.036
9.504,8.044
9.508,7.992
9.512,7.996
9.516,7.972
9.52,8.016
9.524,7.968
9.528,8.004
9.532,8.02
9.536,8.052
9.54,8.004
9.544,7.996
9.548,7.996
9.552,7.952
9.556,7.948
9.56,7.948
9.564,7.972
9.568,7.992
9.572,7.988
9.576,7.972
9.58,7.972
9.584,7.972
9.588,8.004
9.592,7.936
9.596,7.932
9.6,7.972
9.604,7.988
9.608,7.968
9.612,7.968
9.616,7.936
9.62,7.98
9.624,7.968
9.628,7.948
9.632,7.964
9.636,8
9.64,7.952
9.644,7.928
9.648,7.94
9.652,7.976
9.656,7.956
9.66,7.912
9.664,7.952
9.668,7.976
9.672,7.928
9.676,7.92
9.68,7.936
9.684,7.948
9.688,7.952
9.692,7.956
9.696,7.944
9.7,7.936
9.704,7.948
9.708,7.892
9.712,7.92
9.716,7.96
9.72,7.956
9.724,7.932
9.728,7.924
9.732,7.96
9.736,7.968
9.74,7.924
9.744,7.924
9.748,7.988
9.752,8.028
9.756,8.024
9.76,8.004
9.764,8.012
9.768,8.088
9.772,8.072
9.776,8.084
9.78,8.188
9.784,8.248
9.788,8.216
9.792,8.236
9.796,8.212
9.8,8.26
9.804,8.204
9.808,8.14
9.812,8.164
9.816,8.196
9.82,8.12
9.824,7.976
9.828,7.896
9.832,7.9
9.836,7.924
9.84,7.888
9.844,7.836
9.848,7.796
9.852,7.784
9.856,7.848
9.86,7.804
9.864,7.816
9.868,7.796
9.872,7.804
9.876,7.784
9.88,7.788
9.884,7.788
9.888,7.804
9.892,7.748
9.896,7.724
9.9,7.74
9.904,7.752
9.908,7.8
9.912,7.936
9.916,8.212
9.92,8.64
9.924,9.24
9.928,10.008
9.932,10.28
9.936,9.72
9.94,8.816
9.944,8.208
9.948,7.72
9.952,7.592
9.956,7.624
9.96,7.652
9.964,7.752
9.968,7.836
9.972,7.824
9.976,7.784
9.98,7.816
9.984,7.852
9.988,7.832
9.992,7.812
9.996,7.788
10,7.816
10.004,7.82
10.008,7.792
10.012,7.82
10.016,7.856
10.02,7.884
10.024,7.816
10.028,7.812
10.032,7.868
10.036,7.868
10.04,7.832
10.044,7.808
10.048,7.808
10.052,7.856
10.056,7.872
10.06,7.868
10.064,7.848
10.068,7.888
10.072,7.88
10.076,7.836
10.08,7.84
10.084,7.888
10.088,7.912
10.092,7.872
10.096,7.86
10.1,7.868
10.104,7.912
10.108,7.912
10.112,7.92
10.116,7.924
10.12,7.992
10.124,7.96
10.128,7.948
10.132,7.972
10.136,8.02
10.14,8.028
10.144,8.012
10.148,8.072
10.152,8.084
10.156,8.1
10.16,8.052
10.164,8.116
10.168,8.128
10.172,8.172
10.176,8.2
10.18,8.232
10.184,8.28
10.188,8.3
10.192,8.284
10.196,8.272
10.2,8.284
10.204,8.348
10.208,8.32
10.212,8.332
10.216,8.372
10.22,8.4
10.224,8.364
10.228,8.36
10.232,8.368
10.236,8.344
10.24,8.312
10.244,8.28
10.248,8.276
10.252,8.28
10.256,8.176
10.26,8.1
10.264,8.08
10.268,8.064
10.272,8.016
10.276,7.988
10.28,7.976
10.284,7.984
10.288,7.96
10.292,7.888
10.296,7.884
10.3,7.916
10.304,7.948
10.308,7.872
10.312,7.824
10.316,7.892
10.32,7.908
10.324,7.912
10.328,7.88
10.332,7.828
10.336,7.868
10.34,7.836
10.344,7.832
10.348,7.82
10.352,7.832
10.356,7.832
10.36,7.8
10.364,7.792
10.368,7.844
10.372,7.832
10.376,7.816
10.38,7.808
10.384,7.812
10.388,7.88
10.392,7.836
10.396,7.8
10.4,7.828
10.404,7.9
10.408,7.888
10.412,7.884
10.416,7.852
10.42,7.872
10.424,7.828
10.428,7.844
10.432,7.864
10.436,7.884
10.44,7.88
10.444,7.84
10.448,7.872
10.452,7.9
10.456,7.892
10.46,7.856
10.464,7.856
10.468,7.932
10.472,7.88
10.476,7.848
10.48,7.856
10.484,7.86
10.488,7.86
10.492,7.84
10.496,7.872
10.5,7.904
10.504,7.932
10.508,7.852
10.512,7.816
10.516,7.872
10.52,7.9
10.524,7.86
10.528,7.856
10.532,7.872
10.536,7.892
10.54,7.92
10.544,7.9
10.548,7.864
10.552,7.828
10.556,7.788
10.56,7.8
10.564,7.828
10.568,7.848
10.572,7.864
10.576,7.86
10.58,7.88
10.584,7.824
10.588,7.832
10.592,7.812
10.596,7.824
10.6,7.844
10.604,7.864
10.608,7.816
10.612,7.852
10.616,7.84
10.62,7.856
10.624,7.84
10.628,7.816
10.632,7.848
10.636,7.832
10.64,7.844
10.644,7.86
10.648,7.892
10.652,7.908
10.656,7.852
10.66,7.82
10.664,7.8
10.668,7.844
10.672,7.84
10.676,7.828
10.68,7.816
10.684,7.844
10.688,7.908
10.692,7.852
10.696,7.8
10.7,7.828
10.704,7.86
10.708,7.816
10.712,7.824
10.716,7.844
10.72,7.88
10.724,7.888
10.728,7.896
10.732,7.92
10.736,7.928
10.74,7.932
10.744,7.924
10.748,7.984
10.752,8.02
10.756,8.02
10.76,8.052
10.764,8.108
10.768,8.172
10.772,8.228
10.776,8.136
10.78,8.14
10.784,8.16
10.788,8.16
10.792,8.124
10.796,8.04
10.8,8.016
10.804,8.02
10.808,7.936
10.812,7.888
10.816,7.852
10.82,7.836
10.824,7.8
10.828,7.796
10.832,7.8
10.836,7.848
10.84,7.824
10.844,7.8
10.848,7.768
10.852,7.74
10.856,7.688
10.86,7.704
10.864,7.724
10.868,7.748
10.872,7.748
10.876,7.74
10.88,7.788
10.884,7.772
10.888,7.784
10.892,7.852
10.896,8.06
10.9,8.436
10.904,9.016
10.908,9.74
10.912,10.224
10.916,10.004
10.92,9.148
10.924,8.392
10.928,7.828
10.932,7.552
10.936,7.564
10.94,7.656
10.944,7.708
10.948,7.744
10.952,7.832
10.956,7.836
10.96,7.804
10.964,7.816
10.968,7.828
10.972,7.82
10.976,7.78
10.98,7.816
10.984,7.86
10.988,7.86
10.992,7.864
10.996,7.836
11,7.832
11.004,7.824
11.008,7.772
11.012,7.804
11.016,7.836
11.02,7.896
11.024,7.904
11.028,7.86
11.032,7.856
11.036,7.856
11.04,7.868
11.044,7.848
11.048,7.876
11.052,7.9
11.056,7.888
11.06,7.864
11.064,7.896
11.068,7.94
11.072,7.944
11.076,7.92
11.08,7.908
11.084,7.908
11.088,7.952
11.092,7.94
11.096,7.984
11.1,8.008
11.104,8.06
11.108,8.04
11.112,8.016
11.116,7.992
11.12,8.036
11.124,8.032
11.128,8.052
11.132,8.096
11.136,8.156
11.14,8.148
11.144,8.152
11.148,8.152
11.152,8.208
11.156,8.216
11.16,8.204
11.164,8.24
11.168,8.288
11.172,8.316
11.176,8.284
11.18,8.324
11.184,8.336
11.188,8.364
11.192,8.36
11.196,8.348
11.2,8.412
11.204,8.42
11.208,8.368
11.212,8.328
11.216,8.36
11.22,8.336
11.224,8.328
11.228,8.292
11.232,8.26
11.236,8.244
11.24,8.212
11.244,8.176
11.248,8.144
11.252,8.132
11.256,8.112
11.26,8.088
11.264,8.032
11.268,8.028
11.272,8.012
11.276,7.976
11.28,7.984
11.284,8.02
11.288,8.004
11.292,7.948
11.296,7.928
11.3,7.96
11.304,7.984
11.308,7.948
11.312,7.96
11.316,7.992
11.32,8.012
11.324,7.952
11.328,7.96
11.332,7.96
11.336,7.968
11.34,7.96
11.344,7.936
11.348,7.928
11.352,7.936
11.356,7.944
11.36,7.956
11.364,7.944
11.368,7.932
11.372,7.948
11.376,7.956
11.38,7.948
11.384,7.96
11.388,7.984
11.392,7.948
11.396,7.944
11.4,7.956
11.404,8.008
11.408,7.956
11.412,7.972
11.416,7.968
11.42,7.996
11.424,8.016
11.428,7.996
11.432,8.008
11.436,8.016
11.44,8.016
11.444,7.98
11.448,8.024
11.452,8
11.456,7.964
11.46,7.964
11.464,8
11.468,8.028
11.472,8.024
11.476,7.992
11.48,7.968
11.484,7.968
11.488,8.024
11.492,8.004
11.496,7.972
11.5,7.968
11.504,8
11.508,7.988
11.512,7.968
11.516,7.992
11.52,8.036
11.524,7.992
11.528,8
11.532,8.024
11.536,8.04
11.54,8.004
11.544,7.976
11.548,7.98
11.552,7.984
11.556,7.972
11.56,7.992
11.564,8
11.568,7.976
11.572,7.972
11.576,7.976
11.58,8.004
11.584,8.036
11.588,8.028
11.592,8
11.596,7.964
11.6,8
11.604,8.012
11.608,8
11.612,7.92
11.616,8
11.62,8.032
11.624,7.968
11.628,7.98
11.632,7.972
11.636,7.968
11.64,8.008
11.644,7.992
11.648,8.004
11.652,8.016
11.656,8.008
11.66,8.016
11.664,7.98
11.668,7.984
11.672,8.008
11.676,7.984
11.68,7.992
11.684,8.012
11.688,8.052
11.692,8.024
11.696,8
11.7,8.012
11.704,8.044
11.708,7.992
11.712,8
11.716,8.036
11.72,8.12
11.724,8.096
11.728,8.072
11.732,8.124
11.736,8.192
11.74,8.236
11.744,8.22
11.748,8.24
11.752,8.264
11.756,8.308
11.76,8.348
11.764,8.36
11.768,8.324
11.772,8.296
11.776,8.256
11.78,8.228
11.784,8.192
11.788,8.156
11.792,8.064
11.796,7.988
11.8,8.02
11.804,8.028
11.808,7.948
11.812,7.952
11.816,7.928
11.82,7.94
11.824,7.944
11.828,7.908
11.832,7.92
11.836,7.94
11.84,7.924
11.844,7.88
11.848,7.884
11.852,7.92
11.856,7.912
11.86,7.876
11.864,7.9
11.868,7.928
11.872,7.948
11.876,8.024
11.88,8.132
11.884,8.348
11.888,8.784
11.892,9.4
11.896,9.976
11.9,9.928
11.904,9.272
11.908,8.588
11.912,8.064
11.916,7.664
11.92,7.68
11.924,7.796
11.928,7.872
11.932,7.956
11.936,7.96
11.94,7.964
11.944,7.944
11.948,7.928
11.952,7.96
11.956,7.976
11.96,7.976
11.964,7.968
11.968,7.988
11.972,7.996
11.976,7.988
11.98,7.972
11.984,7.932
11.988,7.968
11.992,7.98
11.996,7.964
12,8.04
12.004,8.052
12.008,7.976
12.012,7.944
12.016,7.96
12.02,8.004
12.024,7.976
12.028,7.996
12.032,8.024
12.036,8.04
12.04,8.04
12.044,8.052
12.048,8.036
12.052,8.032
12.056,8.016
12.06,8.028
12.064,8.068
12.068,8.052
12.072,8.08
12.076,8.088
12.08,8.092
12.084,8.144
12.088,8.16
12.092,8.104
12.096,8.116
12.1,8.148
12.104,8.216
12.108,8.204
12.112,8.196
12.116,8.232
12.12,8.276
12.124,8.264
12.128,8.224
12.132,8.24
12.136,8.304
12.14,8.328
12.144,8.34
12.148,8.408
12.152,8.412
12.156,8.444
12.16,8.404
12.164,8.404
12.168,8.432
12.172,8.476
12.176,8.48
12.18,8.468
12.184,8.476
12.188,8.556
12.192,8.532
12.196,8.464
12.2,8.48
12.204,8.464
12.208,8.432
12.212,8.384
12.216,8.376
12.22,8.388
12.224,8.364
12.228,8.276
12.232,8.268
12.236,8.22
12.24,8.188
12.244,8.176
12.248,8.176
12.252,8.152
12.256,8.144
12.26,8.124
12.264,8.128
12.268,8.112
12.272,8.132
12.276,8.1
12.28,8.052
12.284,8.052
12.288,8.1
12.292,8.088
12.296,8.096
12.3,8.112
12.304,8.108
12.308,8.064
12.312,8.004
12.316,8.068
12.32,8.092
12.324,8.048
12.328,8.06
12.332,8.064
12.336,8.076
12.34,8.052
12.344,8.048
12.348,8.048
12.352,8.048
12.356,8.06
12.36,8.084
12.364,8.076
12.368,8.012
12.372,8.072
12.376,8.076
12.38,8.06
12.384,8.076
12.388,8.088
12.392,8.096
12.396,8.088
12.4,8.108
12.404,8.112
12.408,8.08
12.412,8.032
12.416,8.068
12.42,8.128
12.424,8.1
12.428,8.092
12.432,8.108
12.436,8.104
12.44,8.104
12.444,8.068
12.448,8.08
12.452,8.08
12.456,8.1
12.46,8.088
12.464,8.096
12.468,8.072
12.472,8.06
12.476,8.092
12.48,8.076
12.484,8.112
12.488,8.124
12.492,8.076
12.496,8.072
12.5,8.06
12.504,8.104
12.508,8.08
12.512,8.04
12.516,8.064
12.52,8.064
12.524,8.064
12.528,8.064
12.532,8.088
12.536,8.124
12.54,8.104
12.544,8.044
12.548,8.044
12.552,8.06
12.556,8.104
12.56,8.092
12.564,8.06
12.568,8.06
12.572,8.092
12.576,8.056
12.58,8.072
12.584,8.076
12.588,8.108
12.592,8.068
12.596,8.032
12.6,8.084
12.604,8.092
12.608,8.1
12.612,8.056
12.616,8.072
12.62,8.084
12.624,8.076
12.628,8.048
12.632,8.088
12.636,8.096
12.64,8.052
12.644,8.032
12.648,8.064
12.652,8.068
12.656,8.092
12.66,8.068
12.664,8.04
12.668,8.044
12.672,8.116
12.676,8.092
12.68,8.048
12.684,8.092
12.688,8.092
12.692,8.06
12.696,8.044
12.7,8.04
12.704,8.1
12.708,8.12
12.712,8.108
12.716,8.136
12.72,8.228
12.724,8.192
12.728,8.148
12.732,8.208
12.736,8.24
12.74,8.28
12.744,8.296
12.748,8.372
12.752,8.388
12.756,8.428
12.76,8.384
12.764,8.36
12.768,8.332
12.772,8.372
12.776,8.324
12.78,8.268
12.784,8.268
12.788,8.2
12.792,8.128
12.796,8.056
12.8,8.056
12.804,8.072
12.808,8.048
12.812,7.988
12.816,8.004
12.82,7.996
12.824,7.988
12.828,7.964
12.832,7.96
12.836,7.94
12.84,7.94
12.844,7.976
12.848,7.952
12.852,7.952
12.856,7.984
12.86,7.972
12.864,7.968
12.868,8.024
12.872,8.052
12.876,8.1
12.88,8.288
12.884,8.588
12.888,9.1
12.892,9.7
12.896,9.988
12.9,9.624
12.904,8.864
12.908,8.324
12.912,7.788
12.916,7.664
12.92,7.796
12.924,7.844
12.928,7.936
12.932,7.992
12.936,8.016
12.94,7.992
12.944,8.004
12.948,8.02
12.952,8.016
12.956,8.036
12.96,7.996
12.964,7.972
12.968,8
12.972,8.068
12.976,8.064
12.98,7.98
12.984,8.004
12.988,8.02
12.992,8.048
12.996,8.032
13,8.06
13.004,8.052
13.008,8.02
13.012,8.004
13.016,8.052
13.02,8.08
13.024,8.036
13.028,8.06
13.032,8.068
13.036,8.06
13.04,8.084
13.044,8.068
13.048,8.092
13.052,8.076
13.056,8.116
13.06,8.128
13.064,8.112
13.068,8.12
13.072,8.128
13.076,8.164
13.08,8.104
13.084,8.156
13.088,8.184
13.092,8.16
13.096,8.188
13.1,8.208
13.104,8.252
13.108,8.224
13.112,8.208
13.116,8.256
13.12,8.276
13.124,8.272
13.128,8.272
13.132,8.292
13.136,8.376
13.14,8.412
13.144,8.372
13.148,8.344
13.152,8.416
13.156,8.484
13.16,8.504
13.164,8.496
13.168,8.5
13.172,8.484
13.176,8.532
13.18,8.512
13.184,8.544
13.188,8.56
13.192,8.536
13.196,8.464
13.2,8.476
13.204,8.512
13.208,8.46
13.212,8.424
13.216,8.444
13.22,8.412
13.224,8.364
13.228,8.32
13.232,8.32
13.236,8.28
13.24,8.288
13.244,8.24
13.248,8.208
13.252,8.18
13.256,8.184
13.26,8.176
13.264,8.124
13.268,8.14
13.272,8.184
13.276,8.144
13.28,8.112
13.284,8.12
13.288,8.148
13.292,8.128
13.296,8.104
13.3,8.12
13.304,8.108
13.308,8.116
13.312,8.096
13.316,8.12
13.32,8.104
13.324,8.084
13.328,8.1
13.332,8.136
13.336,8.14
13.34,8.116
13.344,8.104
13.348,8.1
13.352,8.1
13.356,8.132
13.36,8.12
13.364,8.064
13.368,8.104
13.372,8.14
13.376,8.144
13.38,8.112
13.384,8.124
13.388,8.16
13.392,8.152
13.396,8.092
13.4,8.112
13.404,8.132
13.408,8.172
13.412,8.14
13.416,8.16
13.42,8.204
13.424,8.164
13.428,8.104
13.432,8.128
13.436,8.14
13.44,8.136
13.444,8.14
13.448,8.168
13.452,8.132
13.456,8.148
13.46,8.144
13.464,8.112
13.468,8.136
13.472,8.128
13.476,8.168
13.48,8.104
13.484,8.108
13.488,8.148
13.492,8.14
13.496,8.092
13.5,8.128
13.504,8.14
13.508,8.16
13.512,8.108
13.516,8.092
13.52,8.132
13.524,8.132
13.528,8.1
13.532,8.088
13.536,8.1
13.54,8.132
13.544,8.144
13.548,8.164
13.552,8.148
13.556,8.124
13.56,8.108
13.564,8.064
13.568,8.084
13.572,8.104
13.576,8.092
13.58,8.08
13.584,8.112
13.588,8.148
13.592,8.112
13.596,8.088
13.6,8.084
13.604,8.112
13.608,8.116
13.612,8.1
13.616,8.108
13.62,8.1
13.624,8.14
13.628,8.132
13.632,8.116
13.636,8.08
13.64,8.124
13.644,8.14
13.648,8.116
13.652,8.112
13.656,8.096
13.66,8.068
13.664,8.068
13.668,8.08
13.672,8.12
13.676,8.124
13.68,8.104
13.684,8.112
13.688,8.096
13.692,8.1
13.696,8.096
13.7,8.112
13.704,8.136
13.708,8.212
13.712,8.24
13.716,8.2
13.72,8.16
13.724,8.22
13.728,8.228
13.732,8.3
13.736,8.34
13.74,8.38
13.744,8.368
13.748,8.448
13.752,8.436
13.756,8.428
13.76,8.408
13.764,8.38
13.768,8.348
13.772,8.28
13.776,8.232
13.78,8.152
13.784,8.148
13.788,8.116
13.792,8.104
13.796,8.04
13.8,8.012
13.804,7.98
13.808,7.992
13.812,7.956
13.816,7.976
13.82,7.992
13.824,8
13.828,7.972
13.832,7.936
13.836,7.936
13.84,7.98
13.844,7.98
13.848,7.964
13.852,7.968
13.856,7.988
13.86,8.008
13.864,8.056
13.868,8.108
13.872,8.28
13.876,8.652
13.88,9.208
13.884,9.916
13.888,10.196
13.892,9.756
13.896,8.896
13.9,8.364
13.904,7.936
13.908,7.724
13.912,7.744
13.916,7.84
13.92,7.952
13.924,8.016
13.928,8.016
13.932,7.972
13.936,7.972
13.94,7.972
13.944,8
13.948,8.016
13.952,8.008
13.956,7.988
13.96,8.024
13.964,8.04
13.968,8.012
13.972,8
13.976,7.996
13.98,7.992
13.984,8.004
13.988,8.044
13.992,8.028
13.996,7.996
14,8.04
14.004,8.084
14.008,8.036
14.012,8.024
14.016,8.02
14.02,8.056
14.024,8.048
14.028,8.028
14.032,8.048
14.036,8.04
14.04,8.028
14.044,8.068
14.048,8.092
14.052,8.1
14.056,8.076
14.06,8.092
14.064,8.128
14.068,8.136
14.072,8.164
14.076,8.14
14.08,8.128
14.084,8.16
14.088,8.176
14.092,8.184
14.096,8.212
14.1,8.236
14.104,8.236
14.108,8.196
14.112,8.244
14.116,8.276
14.12,8.336
14.124,8.308
14.128,8.356
14.132,8.34
14.136,8.376
14.14,8.392
14.144,8.408
14.148,8.432
14.152,8.452
14.156,8.44
14.16,8.48
14.164,8.528
14.168,8.54
14.172,8.536
14.176,8.5
14.18,8.472
14.184,8.48
14.188,8.48
14.192,8.488
14.196,8.492
14.2,8.488
14.204,8.412
14.208,8.34
14.212,8.336
14.216,8.328
14.22,8.3
14.224,8.256
14.228,8.212
14.232,8.232
14.236,8.228
14.24,8.18
14.244,8.172
14.248,8.128
14.252,8.096
14.256,8.06
14.26,8.108
14.264,8.088
14.268,8.08
14.272,8.08
14.276,8.056
14.28,8.044
14.284,8.076
14.288,8.084
14.292,8.084
14.296,8.024
14.3,8.036
14.304,8.06
14.308,8.056
14.312,8.056
14.316,8.02
14.32,8.016
14.324,8.048
14.328,8.044
14.332,8.036
14.336,8.076
14.34,8.056
14.344,8.024
14.348,8.032
14.352,8.048
14.356,8.024
14.36,8.028
14.364,8.04
14.368,8.032
14.372,8.044
14.376,8.052
14.38,8.056
14.384,8.072
14.388,8.072
14.392,8.056
14.396,8.06
14.4,8.028
14.404,8.044
14.408,8.056
14.412,8.116
14.416,8.064
14.42,8.044
14.424,8.076
14.428,8.06
14.432,8.044
14.436,8.072
14.44,8.06
14.444,8.084
14.448,8.072
14.452,8.072
14.456,8.02
14.46,8.048
14.464,8.068
14.468,8.068
14.472,8.08
14.476,8.076
14.48,8.032
14.484,8.008
14.488,8.02
14.492,8.032
14.496,8.044
14.5,8.044
14.504,8.028
14.508,8.016
14.512,8.024
14.516,8.032
14.52,8.04
14.524,8.008
14.528,7.988
14.532,8.016
14.536,8.048
14.54,8.016
14.544,7.976
14.548,8.008
14.552,8.024
14.556,8.008
14.56,8.048
14.564,8.044
14.568,8.032
14.572,8
14.576,7.98
14.58,7.992
14.584,8.028
14.588,8.028
14.592,8.012
14.596,8.02
14.6,8.004
14.604,7.988
14.608,7.96
14.612,7.968
14.616,7.992
14.62,8.012
14.624,7.988
14.628,7.976
14.632,7.992
14.636,8
14.64,7.964
14.644,8.036
14.648,8.02
14.652,8.012
14.656,7.988
14.66,8.016
14.664,8.032
14.668,8.016
14.672,7.972
14.676,7.976
14.68,7.992
14.684,8.016
14.688,8.06
14.692,8.024
14.696,8.044
14.7,8.04
14.704,8.108
14.708,8.1
14.712,8.084
14.716,8.14
14.72,8.14
14.724,8.132
14.728,8.26
14.732,8.284
14.736,8.276
14.74,8.32
14.744,8.292
14.748,8.292
14.752,8.3
14.756,8.308
14.76,8.276
14.764,8.228
14.768,8.176
14.772,8.116
14.776,8.016
14.78,7.98
14.784,8
14.788,7.992
14.792,7.964
14.796,7.924
14.8,7.932
14.804,7.936
14.808,7.908
14.812,7.888
14.816,7.884
14.82,7.848
14.824,7.9
14.828,7.904
14.832,7.896
14.836,7.912
14.84,7.896
14.844,7.9
14.848,7.868
14.852,7.888
14.856,7.936
14.86,8.068
14.864,8.332
14.868,8.72
14.872,9.348
14.876,10.104
14.88,10.328
14.884,9.776
14.888,8.868
14.892,8.28
14.896,7.792
14.9,7.648
14.904,7.744
14.908,7.828
14.912,7.928
14.916,7.948
14.92,7.924
14.924,7.908
14.928,7.908
14.932,7.932
14.936,7.928
14.94,7.948
14.944,7.98
14.948,7.984
14.952,7.98
14.956,7.952
14.96,7.968
14.964,8.008
14.968,7.976
14.972,7.944
14.976,7.988
14.98,8
14.984,7.988
14.988,7.936
14.992,7.92
14.996,7.98
15,8.008
15.004,7.984
15.008,7.968
15.012,7.968
15.016,8
15.02,8.052
15.024,8.048
15.028,8.048
15.032,8.008
15.036,8.032
15.04,8.056
15.044,8.064
15.048,8.088
15.052,8.06
15.056,8.068
15.06,8.08
15.064,8.092
15.068,8.1
15.072,8.108
15.076,8.124
15.08,8.136
15.084,8.176
15.088,8.22
15.092,8.208
15.096,8.204
15.1,8.208
15.104,8.248
15.108,8.216
15.112,8.232
15.116,8.272
15.12,8.3
15.124,8.312
15.128,8.372
15.132,8.416
15.136,8.44
15.14,8.372
15.144,8.412
15.148,8.44
15.152,8.472
15.156,8.492
15.16,8.484
15.164,8.5
15.168,8.548
15.172,8.524
15.176,8.456
15.18,8.444
15.184,8.44
15.188,8.428
15.192,8.432
15.196,8.392
15.2,8.376
15.204,8.332
15.208,8.304
15.212,8.308
15.216,8.272
15.22,8.208
15.224,8.164
15.228,8.188
15.232,8.172
15.236,8.124
15.24,8.112
15.244,8.132
15.248,8.108
15.252,8.08
15.256,8.04
15.26,8.08
15.264,8.08
15.268,8.068
15.272,8.072
15.276,8.084
15.28,8.068
15.284,8.032
15.288,8.02
15.292,8.02
15.296,8.052
15.3,8.056
15.304,8.052
15.308,8.04
15.312,8.04
15.316,8.036
15.32,8.076
15.324,8.028
15.328,8.008
15.332,8.024
15.336,8.056
15.34,8.056
15.344,8.064
15.348,8.06
15.352,8.064
15.356,8.012
15.36,8.016
15.364,8.048
15.368,8.06
15.372,8.056
15.376,8.084
15.38,8.072
15.384,8.112
15.388,8.108
15.392,8.084
15.396,8.036
15.4,8.08
15.404,8.104
15.408,8.068
15.412,8.076
15.416,8.064
15.42,8.088
15.424,8.084
15.428,8.108
15.432,8.08
15.436,8.064
15.44,8.068
15.444,8.076
15.448,8.116
15.452,8.052
15.456,8.06
15.46,8.084
15.464,8.076
15.468,8.076
15.472,8.056
15.476,8.08
15.48,8.06
15.484,8.064
15.488,8.088
15.492,8.048
15.496,8.048
15.5,8.032
15.504,8.06
15.508,8.096
15.512,8.048
15.516,8.04
15.52,8.048
15.524,8.028
15.528,8.096
15.532,8.092
15.536,8.072
15.54,8.056
15.544,8.04
15.548,8.048
15.552,8.096
15.556,8.08
15.56,8.084
15.564,8.056
15.568,8.064
15.572,8.092
15.576,8.096
15.58,8.06
15.584,8.088
15.588,8.092
15.592,8.064
15.596,8.052
15.6,8.052
15.604,8.036
15.608,8.056
15.612,8.052
15.616,8.06
15.62,8.076
15.624,8.08
15.628,8.08
15.632,8.084
15.636,8.084
15.64,8.048
15.644,8.064
15.648,8.064
15.652,8.052
15.656,8.096
15.66,8.104
15.664,8.08
15.668,8.1
15.672,8.06
15.676,8.104
15.68,8.048
15.684,8.072
15.688,8.06
15.692,8.084
15.696,8.12
15.7,8.156
15.704,8.188
15.708,8.148
15.712,8.164
15.716,8.2
15.72,8.268
15.724,8.28
15.728,8.288
15.732,8.356
15.736,8.36
15.74,8.38
15.744,8.384
15.748,8.404
15.752,8.372
15.756,8.384
15.76,8.38
15.764,8.32
15.768,8.24
15.772,8.18
15.776,8.112
15.78,8.076
15.784,8.028
15.788,8.024
15.792,8.016
15.796,8.024
15.8,8.012
15.804,7.988
15.808,7.984
15.812,7.952
15.816,7.956
15.82,7.932
15.824,7.952
15.828,7.98
15.832,7.984
15.836,7.976
15.84,7.964
15.844,7.976
15.848,7.964
15.852,8
15.856,8.02
15.86,8.124
15.864,8.3
15.868,8.604
15.872,9.148
15.876,9.824
15.88,10.084
15.884,9.616
15.888,8.864
15.892,8.332
15.896,7.816
15.9,7.676
15.904,7.816
15.908,7.904
15.912,7.968
15.916,7.964
15.92,7.976
15.924,7.996
15.928,8.02
15.932,8.032
15.936,8.04
15.94,8.012
15.944,8.04
15.948,8.056
15.952,8.068
15.956,8.04
15.96,7.984
15.964,7.976
15.968,8.004
15.972,8.02
15.976,8.04
15.98,8.024
15.984,8.032
15.988,8.024
15.992,8.02
15.996,8.064
16,8.064
16.004,8.06
16.008,8.04
16.012,8.056
16.016,8.076
16.02,8.092
16.024,8.06
16.028,8.052
16.032,8.072
16.036,8.076
16.04,8.092
16.044,8.116
16.048,8.116
16.052,8.116
16.056,8.128
16.06,8.108
16.064,8.1
16.068,8.124
16.072,8.144
16.076,8.164
16.08,8.152
16.084,8.172
16.088,8.216
16.092,8.22
16.096,8.252
16.1,8.22
16.104,8.228
16.108,8.264
16.112,8.296
16.116,8.3
16.12,8.348
16.124,8.388
16.128,8.404
16.132,8.388
16.136,8.424
16.14,8.408
16.144,8.46
16.148,8.5
16.152,8.504
16.156,8.468
16.16,8.492
16.164,8.476
16.168,8.492
16.172,8.492
16.176,8.5
16.18,8.472
16.184,8.512
16.188,8.504
16.192,8.436
16.196,8.42
16.2,8.348
16.204,8.348
16.208,8.344
16.212,8.36
16.216,8.336
16.22,8.296
16.224,8.252
16.228,8.22
16.232,8.176
16.236,8.136
16.24,8.128
16.244,8.116
16.248,8.104
16.252,8.092
16.256,8.096
16.26,8.1
16.264,8.08
16.268,8.096
16.272,8.132
16.276,8.092
16.28,8.088
16.284,8.076
16.288,8.124
16.292,8.088
16.296,8.096
16.3,8.052
16.304,8.052
16.308,8.072
16.312,8.1
16.316,8.124
16.32,8.12
16.324,8.056
16.328,8.048
16.332,8.072
16.336,8.112
16.34,8.056
16.344,8.072
16.348,8.068
16.352,8.064
16.356,8.072
16.36,8.092
16.364,8.072
16.368,8.068
16.372,8.08
16.376,8.088
16.38,8.068
16.384,8.092
16.388,8.104
16.392,8.12
16.396,8.124
16.4,8.096
16.404,8.08
16.408,8.084
16.412,8.096
16.416,8.124
16.42,8.144
16.424,8.12
16.428,8.1
16.432,8.084
16.436,8.08
16.44,8.084
16.444,8.1
16.448,8.088
16.452,8.076
16.456,8.06
16.46,8.104
16.464,8.116
16.468,8.108
16.472,8.052
16.476,8.06
16.48,8.08
16.484,8.108
16.488,8.088
16.492,8.092
16.496,8.084
16.5,8.1
16.504,8.132
16.508,8.092
16.512,8.12
16.516,8.072
16.52,8.072
16.524,8.068
16.528,8.12
16.532,8.1
16.536,8.068
16.54,8.048
16.544,8.064
16.548,8.088
16.552,8.072
16.556,8.08
16.56,8.092
16.564,8.088
16.568,8.092
16.572,8.072
16.576,8.06
16.58,8.128
16.584,8.124
16.588,8.096
16.592,8.124
16.596,8.06
16.6,8.056
16.604,8.084
16.608,8.084
16.612,8.132
16.616,8.112
16.62,8.06
16.624,8.076
16.628,8.068
16.632,8.084
16.636,8.084
16.64,8.056
16.644,8.08
16.648,8.08
16.652,8.128
16.656,8.088
16.66,8.104
16.664,8.084
16.668,8.096
16.672,8.044
16.676,8.136
16.68,8.072
16.684,8.076
16.688,8.1
16.692,7.916
16.696,8.152
16.7,8.16
16.704,8.168
16.708,8.18
16.712,8.224
16.716,8.32
16.72,8.336
16.724,8.296
16.728,8.344
16.732,8.388
16.736,8.436
16.74,8.396
16.744,8.384
16.748,8.344
16.752,8.368
16.756,8.348
16.76,8.308
16.764,8.256
16.768,8.18
16.772,8.12
16.776,8.084
16.78,8.064
16.784,8.02
16.788,8.028
16.792,8.008
16.796,8.024
16.8,8.004
16.804,7.956
16.808,7.944
16.812,7.956
16.816,7.964
16.82,7.996
16.824,7.948
16.828,7.944
16.832,7.964
16.836,7.94
16.84,7.916
16.844,7.98
16.848,7.984
16.852,8.036
16.856,8.084
16.86,8.324
16.864,8.6
16.868,9.072
16.872,9.744
16.876,9.996
16.88,9.56
16.884,8.824
16.888,8.312
16.892,7.808
16.896,7.644
16.9,7.736
16.904,7.888
16.908,7.928
16.912,7.936
16.916,8.016
16.92,8.024
16.924,7.992
16.928,7.992
16.932,7.988
16.936,7.968
16.94,7.928
16.944,7.972
16.948,8.056
16.952,8.048
16.956,8.032
16.96,8.028
16.964,8.02
16.968,8.012
16.972,8.012
16.976,8
16.98,8
16.984,8.012
16.988,8.044
16.992,8.044
16.996,8.064
17,8.024
17.004,8
17.008,8.024
17.012,8.048
17.016,8.044
17.02,8.064
17.024,8.068
17.028,8.1
17.032,8.116
17.036,8.128
17.04,8.08
17.044,8.052
17.048,8.104
17.052,8.1
17.056,8.1
17.06,8.176
17.064,8.156
17.068,8.136
17.072,8.168
17.076,8.188
17.08,8.188
17.084,8.172
17.088,8.192
17.092,8.196
17.096,8.208
17.1,8.26
17.104,8.256
17.108,8.24
17.112,8.292
17.116,8.348
17.12,8.368
17.124,8.396
17.128,8.44
17.132,8.404
17.136,8.424
17.14,8.448
17.144,8.468
17.148,8.472
17.152,8.492
17.156,8.524
17.16,8.528
17.164,8.504
17.168,8.492
17.172,8.496
17.176,8.504
17.18,8.464
17.184,8.464
17.188,8.444
17.192,8.404
17.196,8.404
17.2,8.376
17.204,8.332
17.208,8.304
17.212,8.288
17.216,8.244
17.22,8.252
17.224,8.204
17.228,8.168
17.232,8.152
17.236,8.18
17.24,8.168
17.244,8.14
17.248,8.108
17.252,8.092
17.256,8.064
17.26,8.048
17.264,8.04
17.268,8.06
17.272,8.092
17.276,8.072
17.28,8.036
17.284,8.072
17.288,8.084
17.292,8.076
17.296,8.068
17.3,8.036
17.304,8.064
17.308,8.036
17.312,8.052
17.316,8.06
17.32,8.072
17.324,8.048
17.328,8.076
17.332,8.088
17.336,8.064
17.34,8.06
17.344,8.048
17.348,8.052
17.352,8.028
17.356,8.052
17.36,8.084
17.364,8.072
17.368,8.024
17.372,8.06
17.376,8.084
17.38,8.1
17.384,8.096
17.388,8.104
17.392,8.088
17.396,8.06
17.4,8.04
17.404,8.08
17.408,8.076
17.412,8.072
17.416,8.076
17.42,8.1
17.424,8.076
17.428,8.088
17.432,8.084
17.436,8.072
17.44,8.036
17.444,8.06
17.448,8.068
17.452,8.06
17.456,8.076
17.46,8.088
17.464,8.08
17.468,8.032
17.472,8.056
17.476,8.056
17.48,8.084
17.484,8.056
17.488,8.06
17.492,8.048
17.496,8.06
17.5,8.052
17.504,8.092
17.508,8.06
17.512,8.06
17.516,8.06
17.52,8.08
17.524,8.048
17.528,8.06
17.532,8.064
17.536,8.108
17.54,8.072
17.544,8.04
17.548,8.028
17.552,8.012
17.556,8.052
17.56,8.052
17.564,8.008
17.568,8.012
17.572,8.076
17.576,8.056
17.58,8.024
17.584,8.008
17.588,8.028
17.592,7.992
17.596,8.032
17.6,8.032
17.604,8.076
17.608,8.06
17.612,8.052
17.616,8.012
17.62,8.012
17.624,8.012
17.628,8.008
17.632,8.028
17.636,8.032
17.64,8.032
17.644,8.052
17.648,8.04
17.652,8.028
17.656,8.076
17.66,8.032
17.664,8.028
17.668,8.02
17.672,8.028
17.676,8.028
17.68,8.044
17.684,8.072
17.688,8.14
17.692,8.16
17.696,8.116
17.7,8.1
17.704,8.14
17.708,8.168
17.712,8.212
17.716,8.248
17.72,8.3
17.724,8.336
17.728,8.388
17.732,8.336
17.736,8.372
17.74,8.312
17.744,8.284
17.748,8.268
17.752,8.26
17.756,8.204
17.76,8.152
17.764,8.096
17.768,8.06
17.772,8.04
17.776,7.976
17.78,7.936
17.784,7.928
17.788,7.944
17.792,7.928
17.796,7.936
17.8,7.944
17.804,7.904
17.808,7.864
17.812,7.9
17.816,7.908
17.82,7.9
17.824,7.904
17.828,7.9
17.832,7.944
17.836,7.944
17.84,7.916
17.844,7.928
17.848,7.98
17.852,8.236
17.856,8.584
17.86,9.144
17.864,9.896
17.868,10.268
17.872,10.008
17.876,9.096
17.88,8.432
17.884,7.908
17.888,7.684
17.892,7.724
17.896,7.852
17.9,7.9
17.904,7.944
17.908,7.944
17.912,7.92
17.916,7.94
17.92,7.948
17.924,7.96
17.928,7.972
17.932,7.956
17.936,7.988
17.94,7.992
17.944,8.016
17.948,8.004
17.952,7.964
17.956,7.964
17.96,7.976
17.964,8
17.968,7.964
17.972,7.984
17.976,7.992
17.98,8.024
17.984,8.008
17.988,7.988
17.992,7.92
17.996,7.984
18,7.988
18.004,8.052
18.008,8.004
18.012,8.016
18.016,8.024
18.02,8.044
18.024,8.052
18.028,8.08
18.032,8.04
18.036,8.04
18.04,8.028
18.044,8.024
18.048,8.084
18.052,8.096
18.056,8.108
18.06,8.116
18.064,8.116
18.068,8.168
18.072,8.176
18.076,8.128
18.08,8.172
18.084,8.156
18.088,8.2
18.092,8.228
18.096,8.264
18.1,8.26
18.104,8.308
18.108,8.292
18.112,8.34
18.116,8.316
18.12,8.384
18.124,8.368
18.128,8.404
18.132,8.436
18.136,8.456
18.14,8.452
18.144,8.468
18.148,8.476
18.152,8.48
18.156,8.516
18.16,8.528
18.164,8.496
18.168,8.452
18.172,8.46
18.176,8.448
18.18,8.436
18.184,8.396
18.188,8.356
18.192,8.364
18.196,8.332
18.2,8.284
18.204,8.292
18.208,8.224
18.212,8.196
18.216,8.18
18.22,8.164
18.224,8.124
18.228,8.132
18.232,8.124
18.236,8.116
18.24,8.056
18.244,8.088
18.248,8.08
18.252,8.048
18.256,8.072
18.26,8.04
18.264,8.04
18.268,8.052
18.272,8.052
18.276,8.04
18.28,8.056
18.284,8.024
18.288,8.056
18.292,8.044
18.296,8.028
18.3,8.04
18.304,8.044
18.308,7.996
18.312,8.016
18.316,8
18.32,8.068
18.324,8.06
18.328,8.032
18.332,8.036
18.336,8.056
18.34,8.044
18.344,8.044
18.348,8.044
18.352,8.016
18.356,8.056
18.36,8.056
18.364,8.064
18.368,8.016
18.372,8.084
18.376,8.016
18.38,8.092
18.384,8.088
18.388,8.116
18.392,8.064
18.396,8.048
18.4,8.036
18.404,8.084
18.408,8.064
18.412,8.08
18.416,8.048
18.42,8.072
18.424,8.096
18.428,8.116
18.432,8.056
18.436,8.072
18.44,8.06
18.444,8.052
18.448,8.072
18.452,8.044
18.456,8.06
18.46,8.084
18.464,8.076
18.468,8.032
18.472,8.06
18.476,8.04
18.48,8.056
18.484,8.024
18.488,8.084
18.492,8.044
18.496,8.036
18.5,8.04
18.504,8.076
18.508,8.06
18.512,8.052
18.516,8.016
18.52,8.048
18.524,8.044
18.528,8.052
18.532,8.052
18.536,8.088
18.54,8.06
18.544,8.068
18.548,8.056
18.552,8.04
18.556,8.044
18.56,8.076
18.564,8.072
18.568,8.052
18.572,8.088
18.576,8.112
18.58,8.088
18.584,8.032
18.588,8.06
18.592,8.032
18.596,8.036
18.6,8.04
18.604,8.064
18.608,8.048
18.612,8.048
18.616,8.068
18.62,8.088
18.624,8.056
18.628,8.028
18.632,8.036
18.636,8.04
18.64,8.052
18.644,8.068
18.648,8.048
18.652,8.1
18.656,8.092
18.66,8.072
18.664,8.088
18.668,8.056
18.672,8.088
18.676,8.044
18.68,8.064
18.684,8.072
18.688,8.064
18.692,8.06
18.696,8.096
18.7,8.136
18.704,8.184
18.708,8.164
18.712,8.224
18.716,8.244
18.72,8.292
18.724,8.336
18.728,8.372
18.732,8.396
18.736,8.396
18.74,8.376
18.744,8.36
18.748,8.328
18.752,8.328
18.756,8.316
18.76,8.284
18.764,8.264
18.768,8.172
18.772,8.148
18.776,8.104
18.78,8.08
18.784,8
18.788,7.996
18.792,7.98
18.796,7.984
18.8,7.976
18.804,8.024
18.808,8
18.812,7.968
18.816,7.952
18.82,7.944
18.824,7.932
18.828,7.936
18.832,7.976
18.836,7.976
18.84,8.004
18.844,7.984
18.848,7.988
18.852,7.984
18.856,8.12
18.86,8.324
18.864,8.692
18.868,9.196
18.872,9.844
18.876,10.104
18.88,9.664
18.884,8.88
18.888,8.304
18.892,7.78
18.896,7.676
18.9,7.76
18.904,7.884
18.908,7.952
18.912,8.004
18.916,8.064
18.92,8.028
18.924,7.976
18.928,7.98
18.932,8.008
18.936,8.028
18.94,8.048
18.944,8.024
18.948,8.032
18.952,8.008
18.956,8.052
18.96,8.016
18.964,8.004
18.968,7.992
18.972,8.056
18.976,8.048
18.98,8.056
18.984,8
18.988,8.028
18.992,8.028
18.996,8.04
19,8.004
19.004,8.076
19.008,8.072
19.012,8.06
19.016,8.048
19.02,8.068
19.024,8.056
19.028,8.064
19.032,8.068
19.036,8.092
19.04,8.12
19.044,8.108
19.048,8.12
19.052,8.1
19.056,8.112
19.06,8.172
19.064,8.168
19.068,8.128
19.072,8.176
19.076,8.144
19.08,8.192
19.084,8.184
19.088,8.224
19.092,8.192
19.096,8.236
19.1,8.284
19.104,8.276
19.108,8.256
19.112,8.304
19.116,8.344
19.12,8.368
19.124,8.364
19.128,8.416
19.132,8.412
19.136,8.408
19.14,8.432
19.144,8.464
19.148,8.504
19.152,8.504
19.156,8.524
19.16,8.528
19.164,8.544
19.168,8.528
19.172,8.516
19.176,8.476
19.18,8.456
19.184,8.452
19.188,8.476
19.192,8.412
19.196,8.4
19.2,8.376
19.204,8.34
19.208,8.316
19.212,8.312
19.216,8.264
19.22,8.24
19.224,8.232
19.228,8.196
19.232,8.2
19.236,8.144
19.24,8.14
19.244,8.116
19.248,8.144
19.252,8.12
19.256,8.136
19.26,8.136
19.264,8.104
19.268,8.076
19.272,8.1
19.276,8.096
19.28,8.084
19.284,8.06
19.288,8.096
19.292,8.076
19.296,8.104
19.3,8.084
19.304,8.084
19.308,8.096
19.312,8.108
19.316,8.144
19.32,8.08
19.324,8.08
19.328,8.064
19.332,8.06
19.336,8.052
19.34,8.072
19.344,8.072
19.348,8.1
19.352,8.076
19.356,8.104
19.36,8.088
19.364,8.092
19.368,8.068
19.372,8.072
19.376,8.068
19.38,8.108
19.384,8.084
19.388,8.108
19.392,8.088
19.396,8.096
19.4,8.152
19.404,8.156
19.408,8.124
19.412,8.08
19.416,8.104
19.42,8.104
19.424,8.112
19.428,8.14
19.432,8.12
19.436,8.096
19.44,8.148
19.444,8.172
19.448,8.192
19.452,8.052
19.456,8.048
19.46,8.06
19.464,8.076
19.468,8.076
19.472,8.084
19.476,8.092
19.48,8.08
19.484,8.092
19.488,8.124
19.492,8.08
19.496,8.076
19.5,8.108
19.504,8.12
19.508,8.12
19.512,8.1
19.516,8.132
19.52,8.1
19.524,8.1
19.528,8.104
19.532,8.116
19.536,8.128
19.54,8.1
19.544,8.08
19.548,8.092
19.552,8.068
19.556,8.144
19.56,8.124
19.564,8.084
19.568,8.048
19.572,8.092
19.576,8.096
19.58,8.116
19.584,8.096
19.588,8.124
19.592,8.104
19.596,8.092
19.6,8.064
19.604,8.116
19.608,8.104
19.612,8.104
19.616,8.14
19.62,8.132
19.624,8.112
19.628,8.092
19.632,8.132
19.636,8.092
19.64,8.1
19.644,8.1
19.648,8.08
19.652,8.096
19.656,8.12
19.66,8.132
19.664,8.112
19.668,8.092
19.672,8.128
19.676,8.128
19.68,8.096
19.684,8.108
19.688,8.12
19.692,8.148
19.696,8.132
19.7,8.12
19.704,8.176
19.708,8.192
19.712,8.212
19.716,8.256
19.72,8.268
19.724,8.296
19.728,8.332
19.732,8.336
19.736,8.352
19.74,8.372
19.744,8.412
19.748,8.44
19.752,8.412
19.756,8.456
19.76,8.452
19.764,8.46
19.768,8.392
19.772,8.312
19.776,8.228
19.78,8.204
19.784,8.18
19.788,8.16
19.792,8.096
19.796,8.092
19.8,8.1
19.804,8.064
19.808,8.056
19.812,8.012
19.816,8.028
19.82,8.024
19.824,7.992
19.828,7.98
19.832,7.996
19.836,7.98
19.84,8.016
19.844,8.02
19.848,8.02
19.852,8.016
19.856,8.06
19.86,8.044
19.864,8.108
19.868,8.136
19.872,8.388
19.876,8.712
19.88,9.296
19.884,9.896
19.888,10.06
19.892,9.608
19.896,8.868
19.9,8.34
19.904,7.888
19.908,7.748
19.912,7.844
19.916,7.96
19.92,8.04
19.924,8.052
19.928,8.048
19.932,8.048
19.936,8.024
19.94,8.088
19.944,8.084
19.948,8.072
19.952,8.032
19.956,8.04
19.96,8.076
19.964,8.1
19.968,8.084
19.972,8.1
19.976,8.096
19.98,8.032
19.984,8.048
19.988,8.08
19.992,8.068
19.996,8.072
20,8.096
20.004,8.144
20.008,8.088
20.012,8.072
20.016,8.116
20.02,8.088
20.024,8.108
20.028,8.112
20.032,8.128
20.036,8.14
20.04,8.116
20.044,8.148
20.048,8.172
20.052,8.124
20.056,8.124
20.06,8.172
20.064,8.196
20.068,8.14
20.072,8.18
20.076,8.184
20.08,8.2
20.084,8.216
20.088,8.22
20.092,8.22
20.096,8.236
20.1,8.26
20.104,8.288
20.108,8.276
20.112,8.324
20.116,8.368
20.12,8.328
20.124,8.356
20.128,8.336
20.132,8.412
20.136,8.38
20.14,8.448
20.144,8.508
20.148,8.492
20.152,8.452
20.156,8.516
20.16,8.524
20.164,8.528
20.168,8.536
20.172,8.576
20.176,8.584
20.18,8.548
20.184,8.552
20.188,8.568
20.192,8.536
20.196,8.496
20.2,8.5
20.204,8.472
20.208,8.404
20.212,8.364
20.216,8.38
20.22,8.328
20.224,8.308
20.228,8.272
20.232,8.28
20.236,8.2
20.24,8.22
20.244,8.208
20.248,8.204
20.252,8.168
20.256,8.152
20.26,8.176
20.264,8.196
20.268,8.16
20.272,8.144
20.276,8.092
20.28,8.092
20.284,8.136
20.288,8.128
20.292,8.144
20.296,8.108
20.3,8.12
20.304,8.124
20.308,8.104
20.312,8.104
20.316,8.136
20.32,8.1
20.324,8.096
20.328,8.108
20.332,8.124
20.336,8.112
20.34,8.132
20.344,8.12
20.348,8.096
20.352,8.052
20.356,8.116
20.36,8.124
20.364,8.124
20.368,8.1
20.372,8.112
20.376,8.132
20.38,8.124
20.384,8.144
20.388,8.14
20.392,8.128
20.396,8.112
20.4,8.124
20.404,8.132
20.408,8.116
20.412,8.108
20.416,8.132
20.42,8.112
20.424,8.136
20.428,8.152
20.432,8.16
20.436,8.076
20.44,8.088
20.444,8.104
20.448,8.116
20.452,8.108
20.456,8.164
20.46,8.128
20.464,8.128
20.468,8.068
20.472,8.076
20.476,8.116
20.48,8.148
20.484,8.116
20.488,8.124
20.492,8.112
20.496,8.088
20.5,8.116
20.504,8.132
20.508,8.108
20.512,8.076
20.516,8.092
20.52,8.128
20.524,8.12
20.528,8.084
20.532,8.076
20.536,8.084
20.54,8.112
20.544,8.124
20.548,8.124
20.552,8.1
20.556,8.076
20.56,8.084
20.564,8.1
20.568,8.084
20.572,8.072
20.576,8.096
20.58,8.092
20.584,8.096
20.588,8.088
20.592,8.08
20.596,8.076
20.6,8.08
20.604,8.064
20.608,8.088
20.612,8.076
20.616,8.096
20.62,8.08
20.624,8.076
20.628,8.088
20.632,8.116
20.636,8.072
20.64,8.084
20.644,8.104
20.648,8.08
20.652,8.068
20.656,8.096
20.66,8.092
20.664,8.096
20.668,8.076
20.672,8.044
20.676,8.056
20.68,8.088
20.684,8.116
20.688,8.1
20.692,8.1
20.696,8.108
20.7,8.136
20.704,8.08
20.708,8.12
20.712,8.116
20.716,8.164
20.72,8.152
20.724,8.196
20.728,8.192
20.732,8.268
20.736,8.252
20.74,8.28
20.744,8.332
20.748,8.36
20.752,8.416
20.756,8.476
20.76,8.4
20.764,8.36
20.768,8.384
20.772,8.416
20.776,8.36
20.78,8.28
20.784,8.24
20.788,8.168
20.792,8.14
20.796,8.12
20.8,8.104
20.804,8.068
20.808,8.04
20.812,8.032
20.816,8.028
20.82,7.992
20.824,8.012
20.828,8.004
20.832,7.988
20.836,7.96
20.84,7.996
20.844,7.976
20.848,8.004
20.852,8
20.856,8.004
20.86,8.032
20.864,8.048
20.868,8.016
20.872,8.088
20.876,8.208
20.88,8.4
20.884,8.712
20.888,9.32
20.892,9.948
20.896,10.096
20.9,9.552
20.904,8.816
20.908,8.232
20.912,7.72
20.916,7.752
20.92,7.892
20.924,7.976
20.928,7.98
20.932,8.044
20.936,8.024
20.94,8.076
20.944,8.072
20.948,8.068
20.952,8.08
20.956,8.044
20.96,8.084
20.964,8.1
20.968,8.108
20.972,8.116
20.976,8.12
20.98,8.088
20.984,8.096
20.988,8.056
20.992,8.076
20.996,8.06
21,8.1
21.004,8.1
21.008,8.1
21.012,8.064
21.016,8.08
21.02,8.08
21.024,8.092
21.028,8.136
21.032,8.12
21.036,8.116
21.04,8.136
21.044,8.152
21.048,8.152
21.052,8.124
21.056,8.128
21.06,8.164
21.064,8.184
21.068,8.208
21.072,8.196
21.076,8.188
21.08,8.168
21.084,8.188
21.088,8.204
21.092,8.236
21.096,8.264
21.1,8.256
21.104,8.24
21.108,8.252
21.112,8.272
21.116,8.332
21.12,8.328
21.124,8.356
21.128,8.34
21.132,8.392
21.136,8.372
21.14,8.428
21.144,8.46
21.148,8.488
21.152,8.484
21.156,8.528
21.16,8.54
21.164,8.512
21.168,8.512
21.172,8.528
21.176,8.588
21.18,8.548
21.184,8.564
21.188,8.544
21.192,8.576
21.196,8.556
21.2,8.544
21.204,8.512
21.208,8.516
21.212,8.496
21.216,8.464
21.22,8.424
21.224,8.372
21.228,8.344
21.232,8.36
21.236,8.288
21.24,8.292
21.244,8.264
21.248,8.26
21.252,8.188
21.256,8.22
21.26,8.232
21.264,8.22
21.268,8.188
21.272,8.164
21.276,8.176
21.28,8.144
21.284,8.156
21.288,8.16
21.292,8.184
21.296,8.164
21.3,8.164
21.304,8.152
21.308,8.132
21.312,8.112
21.316,8.184
21.32,8.156
21.324,8.148
21.328,8.136
21.332,8.136
21.336,8.108
21.34,8.144
21.344,8.152
21.348,8.156
21.352,8.14
21.356,8.136
21.36,8.16
21.364,8.176
21.368,8.164
21.372,8.144
21.376,8.136
21.38,8.112
21.384,8.172
21.388,8.188
21.392,8.196
21.396,8.156
21.4,8.16
21.404,8.156
21.408,8.132
21.412,8.128
21.416,8.168
21.42,8.14
21.424,8.16
21.428,8.184
21.432,8.18
21.436,8.192
21.44,8.176
21.444,8.164
21.448,8.18
21.452,8.148
21.456,8.152
21.46,8.14
21.464,8.12
21.468,8.136
21.472,8.176
21.476,8.18
21.48,8.128
21.484,8.152
21.488,8.14
21.492,8.172
21.496,8.14
21.5,8.156
21.504,8.128
21.508,8.18
21.512,8.16
21.516,8.12
21.52,8.096
21.524,8.132
21.528,8.148
21.532,8.116
21.536,8.112
21.54,8.124
21.544,8.112
21.548,8.128
21.552,8.128
21.556,8.12
21.56,8.168
21.564,8.112
21.568,8.116
21.572,8.088
21.576,8.128
21.58,8.104
21.584,8.148
21.588,8.132
21.592,8.136
21.596,8.088
21.6,8.12
21.604,8.084
21.608,8.104
21.612,8.108
21.616,8.132
21.62,8.084
21.624,8.108
21.628,8.096
21.632,8.096
21.636,8.1
21.64,8.128
21.644,8.144
21.648,8.064
21.652,8.112
21.656,8.128
21.66,8.112
21.664,8.088
21.668,8.092
21.672,8.104
21.676,8.096
21.68,8.092
21.684,8.132
21.688,8.12
21.692,8.132
21.696,8.076
21.7,8.092
21.704,8.1
21.708,8.108
21.712,8.104
21.716,8.172
21.72,8.172
21.724,8.228
21.728,8.216
21.732,8.24
21.736,8.24
21.74,8.308
21.744,8.38
21.748,8.396
21.752,8.352
21.756,8.384
21.76,8.372
21.764,8.348
21.768,8.34
21.772,8.328
21.776,8.38
21.78,8.328
21.784,8.316
21.788,8.144
21.792,8.088
21.796,7.98
21.8,8.072
21.804,8.016
21.808,8.024
21.812,7.996
21.816,8.016
21.82,7.964
21.824,8.028
21.828,8.044
21.832,7.98
21.836,7.956
21.84,7.94
21.844,7.936
21.848,7.912
21.852,8.012
21.856,7.968
21.86,7.924
21.864,7.94
21.868,7.944
21.872,8.012
21.876,8.144
21.88,8.424
21.884,8.788
21.888,9.276
21.892,9.932
21.896,10.124
21.9,9.568
21.904,8.836
21.908,8.268
21.912,7.744
21.916,7.76
21.92,7.888
21.924,7.932
21.928,7.96
21.932,7.972
21.936,7.98
21.94,7.964
21.944,8.02
21.948,8.06
21.952,8.008
21.956,7.924
21.96,8.016
21.964,8.016
21.968,8.02
21.972,8.02
21.976,8.06
21.98,8.048
21.984,8.02
21.988,8.028
21.992,8.056
21.996,8.016
22,8.072
22.004,8.044
22.008,8.044
22.012,8.064
22.016,8.072
22.02,8.044
22.024,8.06
22.028,8.044
22.032,8.024
22.036,8.1
22.04,8.096
22.044,8.156
22.048,8.144
22.052,8.104
22.056,8.06
22.06,8.04
22.064,8.072
22.068,8.204
22.072,8.244
22.076,8.136
22.08,8.04
22.084,8.14
22.088,8.176
22.092,8.18
22.096,8.116
22.1,8.136
22.104,8.252
22.108,8.268
22.112,8.2
22.116,8.268
22.12,8.288
22.124,8.344
22.128,8.34
22.132,8.328
22.136,8.324
22.14,8.42
22.144,8.464
22.148,8.444
22.152,8.396
22.156,8.42
22.16,8.484
22.164,8.456
22.168,8.58
22.172,8.576
22.176,8.504
22.18,8.424
22.184,8.484
22.188,8.484
22.192,8.58
22.196,8.552
22.2,8.58
22.204,8.504
22.208,8.472
22.212,8.42
22.216,8.38
22.22,8.332
22.224,8.432
22.228,8.388
22.232,8.3
22.236,8.26
22.24,8.264
22.244,8.22
22.248,8.176
22.252,8.18
22.256,8.24
22.26,8.22
22.264,8.072
22.268,8.08
22.272,8.148
22.276,8.192
22.28,8.12
22.284,8.18
22.288,8.22
22.292,8.112
22.296,8.012
22.3,8.04
22.304,8.024
22.308,8.12
22.312,8.096
22.316,8.128
22.32,8.192
22.324,8.14
22.328,8.096
22.332,8.108
22.336,8.112
22.34,8.024
22.344,8.048
22.348,8.016
22.352,8.08
22.356,8.044
22.36,8.124
22.364,8.128
22.368,8.104
22.372,8.072
22.376,8.152
22.38,8.144
22.384,8.184
22.388,8.104
22.392,8.116
22.396,8.096
22.4,8.124
22.404,8.108
22.408,8.112
22.412,8.104
22.416,8.164
22.42,8.192
22.424,8.136
22.428,8.148
22.432,8.132
22.436,8.088
22.44,8.12
22.444,8.12
22.448,8.104
22.452,8.076
22.456,8.068
22.46,8.1
22.464,8.164
22.468,8.144
22.472,8.124
22.476,8.116
22.48,8.136
22.484,8.12
22.488,8.1
22.492,8.176
22.496,8.156
22.5,8.148
22.504,8.032
22.508,8.052
22.512,8.08
22.516,8.108
22.52,8.112
22.524,8.1
22.528,8.088
22.532,8.048
22.536,8.116
22.54,8.072
22.544,8.108
22.548,8.036
22.552,8.096
22.556,8.092
22.56,8.044
22.564,8.028
22.568,8.076
22.572,8.068
22.576,8.128
22.58,8.12
22.584,8.112
22.588,8.096
22.592,8.056
22.596,8.036
22.6,8.088
22.604,8.1
22.608,8.064
22.612,8.144
22.616,8.156
22.62,8.12
22.624,8.1
22.628,8.128
22.632,8.12
22.636,8.064
22.64,8.04
22.644,8.16
22.648,8.12
22.652,8.124
22.656,8.104
22.66,8.112
22.664,8.012
22.668,8.036
22.672,8.028
22.676,8.104
22.68,8.148
22.684,8.14
22.688,8.156
22.692,8.112
22.696,8.076
22.7,8.112
22.704,8.12
22.708,8.192
22.712,8.136
22.716,8.156
22.72,8.236
22.724,8.236
22.728,8.268
22.732,8.296
22.736,8.308
22.74,8.292
22.744,8.392
22.748,8.496
22.752,8.464
22.756,8.332
22.76,8.404
22.764,8.36
22.768,8.34
22.772,8.316
22.776,8.324
22.78,8.248
22.784,8.228
22.788,8.196
22.792,8.208
22.796,8.1
22.8,8.032
22.804,7.996
22.808,8.016
22.812,8.02
22.816,8.1
22.82,7.984
22.824,7.96
22.828,7.948
22.832,7.876
22.836,7.908
22.84,7.916
22.844,8.088
22.848,8.072
22.852,7.972
22.856,7.936
22.86,8.004
22.864,7.976
22.868,8.092
22.872,8.156
22.876,8.36
22.88,8.588
22.884,9.076
22.888,9.7
22.892,9.996
22.896,9.676
22.9,8.932
22.904,8.276
22.908,7.72
22.912,7.74
22.916,7.908
22.92,7.916
22.924,7.928
22.928,7.924
22.932,8.016
22.936,8.06
22.94,8.024
22.944,8.06
22.948,8.072
22.952,8.08
22.956,7.98
22.96,8.016
22.964,8.016
22.968,8.052
22.972,8.052
22.976,8.088
22.98,8.072
22.984,8.04
22.988,8.04
22.992,7.988
22.996,7.992
23,8.04
23.004,8.112
23.008,8.112
23.012,8.04
23.016,8.024
23.02,8.064
23.024,8.096
23.028,8.128
23.032,8.108
23.036,8.04
23.04,8.04
23.044,8.116
23.048,8.124
23.052,8.16
23.056,8.112
23.06,8.096
23.064,8.112
23.068,8.144
23.072,8.096
23.076,8.188
23.08,8.168
23.084,8.192
23.088,8.164
23.092,8.152
23.096,8.236
23.1,8.308
23.104,8.292
23.108,8.204
23.112,8.172
23.116,8.26
23.12,8.308
23.124,8.26
23.128,8.356
23.132,8.324
23.136,8.312
23.14,8.316
23.144,8.4
23.148,8.448
23.152,8.516
23.156,8.488
23.16,8.484
23.164,8.436
23.168,8.46
23.172,8.484
23.176,8.512
23.18,8.456
23.184,8.492
23.188,8.54
23.192,8.484
23.196,8.464
23.2,8.48
23.204,8.512
23.208,8.424
23.212,8.368
23.216,8.336
23.22,8.3
23.224,8.3
23.228,8.328
23.232,8.332
23.236,8.256
23.24,8.188
23.244,8.176
23.248,8.164
23.252,8.172
23.256,8.096
23.26,8.124
23.264,8.136
23.268,8.196
23.272,8.184
23.276,8.152
23.28,8.1
23.284,8.108
23.288,8.104
23.292,8.172
23.296,8.128
23.3,8.124
23.304,8.092
23.308,8.048
23.312,8.1
23.316,8.136
23.32,8.108
23.324,8.036
23.328,8.024
23.332,8.08
23.336,8.112
23.34,8.1
23.344,8.104
23.348,8.064
23.352,8.116
23.356,8.06
23.36,8.044
23.364,8.04
23.368,8.132
23.372,8.104
23.376,8.128
23.38,8.12
23.384,8.124
23.388,8.14
23.392,8.152
23.396,8.14
23.4,8.168
23.404,8.144
23.408,8.084
23.412,8.096
23.416,8.16
23.42,8.156
23.424,8.108
23.428,8.108
23.432,8.164
23.436,8.14
23.44,8.096
23.444,8.112
23.448,8.124
23.452,8.12
23.456,8.12
23.46,8.156
23.464,8.128
23.468,8.18
23.472,8.14
23.476,8.16
23.48,8.2
23.484,8.172
23.488,8.028
23.492,8.056
23.496,8.096
23.5,8.112
23.504,8.156
23.508,8.148
23.512,8.096
23.516,8.112
23.52,8.168
23.524,8.112
23.528,8.084
23.532,8.084
23.536,8.076
23.54,8.06
23.544,8.144
23.548,8.152
23.552,8.124
23.556,8.056
23.56,8.16
23.564,8.148
23.568,8.14
23.572,8.084
23.576,8.104
23.58,8.088
23.584,8.136
23.588,8.12
23.592,8.124
23.596,8.092
23.6,8.132
23.604,8.112
23.608,8.104
23.612,8.124
23.616,8.148
23.62,8.16
23.624,8.136
23.628,8.116
23.632,8.112
23.636,8.156
23.64,8.072
23.644,8.096
23.648,8.16
23.652,8.172
23.656,8.132
23.66,8.148
23.664,8.104
23.668,8.148
23.672,8.16
23.676,8.12
23.68,8.084
23.684,8.176
23.688,8.108
23.692,8.144
23.696,8.224
23.7,8.272
23.704,8.264
23.708,8.24
23.712,8.232
23.716,8.28
23.72,8.3
23.724,8.328
23.728,8.396
23.732,8.448
23.736,8.504
23.74,8.564
23.744,8.428
23.748,8.264
23.752,8.416
23.756,8.416
23.76,8.352
23.764,8.304
23.768,8.268
23.772,8.228
23.776,8.184
23.78,8.096
23.784,8.124
23.788,8.08
23.792,8.12
23.796,8.092
23.8,8.1
23.804,8.036
23.808,8.02
23.812,8.004
23.816,8.02
23.82,8.056
23.824,8.02
23.828,8.06
23.832,8.052
23.836,8.028
23.84,7.956
23.844,8.028
23.848,8.016
23.852,8.012
23.856,8.104
23.86,8.28
23.864,8.528
23.868,8.888
23.872,9.472
23.876,9.984
23.88,9.808
23.884,9.096
23.888,8.536
23.892,8.08
23.896,7.748
23.9,7.86
23.904,7.968
23.908,8.032
23.912,7.996
23.916,7.988
23.92,8.02
23.924,8.04
23.928,8.064
23.932,8.012
23.936,8.016
23.94,8.092
23.944,8.112
23.948,8.064
23.952,8.088
23.956,8.056
23.96,8.084
23.964,8.076
23.968,8.116
23.972,8.076
23.976,8.12
23.98,8.112
23.984,8.116
23.988,8.136
23.992,8.12
23.996,8.144
24,8.092
24.004,8.108
24.008,8.164
24.012,8.124
24.016,8.092
24.02,8.144
24.024,8.132
24.028,8.184
24.032,8.156
24.036,8.168
24.04,8.06
24.044,8.172
24.048,8.164
24.052,8.184
24.056,8.192
24.06,8.252
24.064,8.232
24.068,8.256
24.072,8.252
24.076,8.26
24.08,8.244
24.084,8.244
24.088,8.272
24.092,8.28
24.096,8.292
24.1,8.324
24.104,8.364
24.108,8.332
24.112,8.332
24.116,8.392
24.12,8.452
24.124,8.416
24.128,8.448
24.132,8.476
24.136,8.504
24.14,8.468
24.144,8.528
24.148,8.548
24.152,8.568
24.156,8.58
24.16,8.596
24.164,8.488
24.168,8.536
24.172,8.528
24.176,8.572
24.18,8.552
24.184,8.464
24.188,8.432
24.192,8.5
24.196,8.484
24.2,8.444
24.204,8.432
24.208,8.368
24.212,8.352
24.216,8.344
24.22,8.312
24.224,8.248
24.228,8.272
24.232,8.22
24.236,8.232
24.24,8.184
24.244,8.164
24.248,8.168
24.252,8.152
24.256,8.156
24.26,8.176
24.264,8.148
24.268,8.132
24.272,8.14
24.276,8.136
24.28,8.132
24.284,8.156
24.288,8.12
24.292,8.108
24.296,8.104
24.3,8.156
24.304,8.164
24.308,8.156
24.312,8.084
24.316,8.068
24.32,8.12
24.324,8.08
24.328,8.112
24.332,8.108
24.336,8.152
24.34,8.1
24.344,8.108
24.348,8.068
24.352,8.116
24.356,8.096
24.36,8.136
24.364,8.076
24.368,8.112
24.372,8.124
24.376,8.08
24.38,8.148
24.384,8.164
24.388,8.14
24.392,8.128
24.396,8.144
24.4,8.12
24.404,8.144
24.408,8.092
24.412,8.132
24.416,8.14
24.42,8.164
24.424,8.084
24.428,8.104
24.432,8.124
24.436,8.112
24.44,8.104
24.444,8.148
24.448,8.12
24.452,8.14
24.456,8.124
24.46,8.12
24.464,8.084
24.468,8.08
24.472,8.04
24.476,8.1
24.48,8.076
24.484,8.144
24.488,8.14
24.492,8.12
24.496,8.076
24.5,8.036
24.504,8.104
24.508,8.056
24.512,8.076
24.516,8.112
24.52,8.116
24.524,7.916
24.528,8.084
24.532,8.096
24.536,8.132
24.54,8.084
24.544,8.104
24.548,8.056
24.552,8.072
24.556,8.04
24.56,8.08
24.564,8.092
24.568,8.08
24.572,8.068
24.576,8.052
24.58,8.056
24.584,8.08
24.588,8.072
24.592,8.036
24.596,8.092
24.6,8.112
24.604,8.076
24.608,8.036
24.612,8.076
24.616,8.092
24.62,8.108
24.624,8.02
24.628,8.056
24.632,8.04
24.636,8.092
24.64,8.076
24.644,8.1
24.648,8.084
24.652,8.068
24.656,8.036
24.66,8.1
24.664,8.084
24.668,8.056
24.672,8.112
24.676,8.18
24.68,8.188
24.684,8.212
24.688,8.22
24.692,8.196
24.696,8.188
24.7,8.272
24.704,8.356
24.708,8.348
24.712,8.412
24.716,8.376
24.72,8.404
24.724,8.36
24.728,8.4
24.732,8.304
24.736,8.252
24.74,8.212
24.744,8.22
24.748,8.16
24.752,8.112
24.756,8.032
24.76,8.032
24.764,8
24.768,7.992
24.772,7.948
24.776,7.988
24.78,7.952
24.784,7.952
24.788,7.944
24.792,7.94
24.796,7.924
24.8,7.932
24.804,7.944
24.808,7.932
24.812,7.988
24.816,7.936
24.82,8.004
24.824,7.968
24.828,7.996
24.832,8.06
24.836,8.224
24.84,8.384
24.844,8.932
24.848,9.624
24.852,10.104
24.856,9.876
24.86,9.06
24.864,8.476
24.868,8.008
24.872,7.724
24.876,7.776
24.88,7.816
24.884,7.864
24.888,7.928
24.892,8.032
24.896,8.028
24.9,8.008
24.904,7.944
24.908,7.94
24.912,7.964
24.916,7.964
24.92,7.988
24.924,7.984
24.928,8.004
24.932,8.004
24.936,8.056
24.94,7.996
24.944,7.968
24.948,7.956
24.952,8
24.956,8.004
24.96,8.02
24.964,8.044
24.968,8.06
24.972,8.04
24.976,7.992
24.98,7.984
24.984,8.044
24.988,8.032
24.992,8.028
24.996,8.072
25,8.088
25.004,8.132
25.008,8.044
25.012,8.056
25.016,8.076
25.02,8.096
25.024,8.052
25.028,8.104
25.032,8.108
25.036,8.18
25.04,8.108
25.044,8.144
25.048,8.152
25.052,8.16
25.056,8.144
25.06,8.192
25.064,8.212
25.068,8.216
25.072,8.2
25.076,8.22
25.08,8.248
25.084,8.24
25.088,8.256
25.092,8.324
25.096,8.336
25.1,8.376
25.104,8.384
25.108,8.364
25.112,8.372
25.116,8.396
25.12,8.444
25.124,8.436
25.128,8.484
25.132,8.464
25.136,8.488
25.14,8.444
25.144,8.512
25.148,8.44
25.152,8.456
25.156,8.424
25.16,8.428
25.164,8.416
25.168,8.384
25.172,8.34
25.176,8.292
25.18,8.332
25.184,8.296
25.188,8.284
25.192,8.22
25.196,8.2
25.2,8.16
25.204,8.184
25.208,8.088
25.212,8.112
25.216,8.152
25.22,8.14
25.224,8.072
25.228,8.068
25.232,8.076
25.236,8.092
25.24,8.072
25.244,8.088
25.248,8.084
25.252,8.076
25.256,8.036
25.26,8.06
25.264,8.056
25.268,8.056
25.272,8.032
25.276,8.048
25.28,8.052
25.284,8.056
25.288,8.1
25.292,8.044
25.296,8.048
25.3,8.068
25.304,8.108
25.308,8.044
25.312,8.04
25.316,8.016
25.32,8.044
25.324,8.04
25.328,8.084
25.332,8.076
25.336,8.08
25.34,8.036
25.344,8.068
25.348,8.052
25.352,8.028
25.356,8.04
25.36,8.092
25.364,8.096
25.368,8.112
25.372,8.1
25.376,8.048
25.38,8.072
25.384,8.072
25.388,8.076
25.392,8.076
25.396,8.1
25.4,8.104
25.404,8.108
25.408,8.024
25.412,8.052
25.416,8.02
25.42,8.104
25.424,8.068
25.428,8.072
25.432,8.02
25.436,8.012
25.44,8.032
25.444,8.096
25.448,8.056
25.452,8.024
25.456,8.024
25.46,8.068
25.464,8.004
25.468,8.02
25.472,8.036
25.476,8.032
25.48,8.044
25.484,8.024
25.488,8.056
25.492,8.076
25.496,8.072
25.5,8.02
25.504,8.06
25.508,8.02
25.512,8.06
25.516,8.004
25.52,8.052
25.524,8.016
25.528,8.056
25.532,8.048
25.536,8.012
25.54,8.008
25.544,8.02
25.548,8.028
25.552,8.06
25.556,8.036
25.56,8.024
25.564,8.04
25.568,8.032
25.572,8.06
25.576,8.024
25.58,8.004
25.584,8.024
25.588,8.06
25.592,8.04
25.596,8.06
25.6,8.052
25.604,8.06
25.608,8.052
25.612,8.044
25.616,8.052
25.62,7.988
25.624,7.98
25.628,8.04
25.632,8.052
25.636,8.068
25.64,8.072
25.644,8.108
25.648,8.088
25.652,8.14
25.656,8.108
25.66,8.18
25.664,8.216
25.668,8.256
25.672,8.216
25.676,8.304
25.68,8.32
25.684,8.368
25.688,8.344
25.692,8.336
25.696,8.312
25.7,8.332
25.704,8.34
25.708,8.272
25.712,8.248
25.716,8.164
25.72,8.112
25.724,8.028
25.728,8.028
25.732,7.988
25.736,8
25.74,7.964
25.744,7.984
25.748,7.956
25.752,7.956
25.756,7.908
25.76,7.936
25.764,7.944
25.768,7.908
25.772,7.944
25.776,7.912
25.78,7.936
25.784,7.924
25.788,7.944
25.792,7.916
25.796,7.932
25.8,7.96
25.804,8.084
25.808,8.248
25.812,8.504
25.816,9
25.82,9.652
25.824,9.984
25.828,9.72
25.832,8.908
25.836,8.38
25.84,7.848
25.844,7.64
25.848,7.772
25.852,7.812
25.856,7.88
25.86,7.952
25.864,7.94
25.868,7.968
25.872,7.98
25.876,7.948
25.88,7.94
25.884,7.988
25.888,8.024
25.892,7.964
25.896,7.96
25.9,7.964
25.904,8.016
25.908,7.94
25.912,7.96
25.916,8.02
25.92,8
25.924,7.944
25.928,7.984
25.932,8.016
25.936,7.984
25.94,7.976
25.944,8.028
25.948,8.008
25.952,8.016
25.956,8.02
25.96,8.008
25.964,7.996
25.968,8.048
25.972,8.096
25.976,8.064
25.98,8.076
25.984,8.068
25.988,8.08
25.992,8.016
25.996,8.064
26,8.124
26.004,8.12
26.008,8.072
26.012,8.084
26.016,8.112
26.02,8.18
26.024,8.124
26.028,8.156
26.032,8.148
26.036,8.156
26.04,8.156
26.044,8.212
26.048,8.208
26.052,8.22
26.056,8.276
26.06,8.292
26.064,8.304
26.068,8.296
26.072,8.324
26.076,8.324
26.08,8.38
26.084,8.48
26.088,8.516
26.092,8.444
26.096,8.38
26.1,8.412
26.104,8.452
26.108,8.424
26.112,8.452
26.116,8.444
26.12,8.476
26.124,8.428
26.128,8.436
26.132,8.44
26.136,8.432
26.14,8.356
26.144,8.364
26.148,8.336
26.152,8.348
26.156,8.296
26.16,8.272
26.164,8.196
26.168,8.16
26.172,8.192
26.176,8.196
26.18,8.176
26.184,8.168
26.188,8.1
26.192,8.06
26.196,8.068
26.2,8.132
26.204,8.156
26.208,8.076
26.212,8.06
26.216,8.068
26.22,8.052
26.224,8.064
26.228,8.068
26.232,8.04
26.236,8.012
26.24,8.028
26.244,8.112
26.248,8.064
26.252,8.056
26.256,8.016
26.26,8.008
26.264,8.032
26.268,8.056
26.272,8.072
26.276,8.072
26.28,8.096
26.284,8.08
26.288,8.076
26.292,8.06
26.296,8.036
26.3,8.02
26.304,8.088
26.308,8.06
26.312,8.096
26.316,8.092
26.32,8.088
26.324,8.012
26.328,8.08
26.332,8.092
26.336,8.132
26.34,8.108
26.344,8.108
26.348,8.104
26.352,8.096
26.356,8.064
26.36,8.088
26.364,8.072
26.368,8.08
26.372,8.116
26.376,8.132
26.38,8.128
26.384,8.108
26.388,8.112
26.392,8.06
26.396,8.04
26.4,8.088
26.404,8.112
26.408,8.048
26.412,8.06
26.416,8.1
26.42,8.128
26.424,8.036
26.428,8.048
26.432,8.02
26.436,8.084
26.44,8.084
26.444,8.08
26.448,8.076
26.452,8.076
26.456,8.088
26.46,8.012
26.464,8.004
26.468,8.076
26.472,8.096
26.476,8.06
26.48,8.056
26.484,8.1
26.488,8.06
26.492,8
26.496,8.112
26.5,8.104
26.504,8.116
26.508,8.064
26.512,8.036
26.516,8.064
26.52,8.072
26.524,8.06
26.528,8.064
26.532,8.052
26.536,8.104
26.54,8.08
26.544,8.016
26.548,8.012
26.552,8.036
26.556,8.072
26.56,8.084
26.564,8.104
26.568,8.084
26.572,8.06
26.576,8.076
26.58,8.02
26.584,8.112
26.588,8.176
26.592,8.212
26.596,8.212
26.6,8.192
26.604,8.18
26.608,8.196
26.612,8.28
26.616,8.32
26.62,8.356
26.624,8.356
26.628,8.408
26.632,8.392
26.636,8.332
26.64,8.336
26.644,8.348
26.648,8.308
26.652,8.232
26.656,8.16
26.66,8.124
26.664,8.096
26.668,8.092
26.672,8.14
26.676,8.028
26.68,7.988
26.684,7.956
26.688,7.944
26.692,7.956
26.696,7.948
26.7,7.948
26.704,7.968
26.708,7.94
26.712,7.932
26.716,7.98
26.72,7.96
26.724,7.932
26.728,7.928
26.732,7.916
26.736,7.944
26.74,7.984
26.744,8.072
26.748,8.204
26.752,8.472
26.756,8.852
26.76,9.476
26.764,10.016
26.768,9.924
26.772,9.136
26.776,8.524
26.78,7.996
26.784,7.648
26.788,7.76
26.792,7.816
26.796,7.876
26.8,7.976
26.804,7.968
26.808,7.968
26.812,7.992
26.816,8.012
26.82,8
26.824,7.972
26.828,8.008
26.832,8.02
26.836,8.008
26.84,7.968
26.844,7.992
26.848,7.976
26.852,7.984
26.856,7.976
26.86,8.02
26.864,8.028
26.868,8
26.872,8.016
26.876,8.016
26.88,7.984
26.884,7.992
26.888,8.028
26.892,8.028
26.896,8.016
26.9,8.012
26.904,8.044
26.908,8.036
26.912,8.068
26.916,8.064
26.92,8.052
26.924,8.04
26.928,8.108
26.932,8.14
26.936,8.088
26.94,8.068
26.944,8.1
26.948,8.1
26.952,8.128
26.956,8.1
26.96,8.128
26.964,8.132
26.968,8.12
26.972,8.176
26.976,8.2
26.98,8.192
26.984,8.212
26.988,8.244
26.992,8.228
26.996,8.252
27,8.272
27.004,8.332
27.008,8.36
27.012,8.332
27.016,8.336
27.02,8.376
27.024,8.384
27.028,8.42
27.032,8.436
27.036,8.46
27.04,8.456
27.044,8.436
27.048,8.432
27.052,8.472
27.056,8.472
27.06,8.44
27.064,8.452
27.068,8.436
27.072,8.404
27.076,8.388
27.08,8.404
27.084,8.404
27.088,8.36
27.092,8.292
27.096,8.276
27.1,8.264
27.104,8.18
27.108,8.148
27.112,8.18
27.116,8.16
27.12,8.144
27.124,8.068
27.128,8.108
27.132,8.1
27.136,8.088
27.14,8.124
27.144,8.06
27.148,8.048
27.152,8.032
27.156,8.028
27.16,8.048
27.164,8.056
27.168,8.036
27.172,8.036
27.176,8.016
27.18,8.048
27.184,8.076
27.188,8.072
27.192,8.06
27.196,8.028
27.2,8.04
27.204,7.98
27.208,7.96
27.212,8.068
27.216,8.068
27.22,8.06
27.224,8.012
27.228,8.028
27.232,8.056
27.236,8.044
27.24,8.016
27.244,8.072
27.248,8.072
27.252,8.052
27.256,8.056
27.26,8.06
27.264,8.068
27.268,8.136
27.272,8.084
27.276,8.044
27.28,8.068
27.284,8.084
27.288,8.064
27.292,8.064
27.296,8.056
27.3,8.064
27.304,8.076
27.308,8.004
27.312,8.008
27.316,8.052
27.32,8.056
27.324,8.088
27.328,8.064
27.332,8.1
27.336,8.056
27.34,8.032
27.344,8.04
27.348,8.024
27.352,8.036
27.356,8.048
27.36,8.052
27.364,8.048
27.368,8.108
27.372,8.116
27.376,8.028
27.38,8
27.384,8.044
27.388,8.028
27.392,8.028
27.396,8.036
27.4,8.116
27.404,8.128
27.408,8.068
27.412,8.036
27.416,8.04
27.42,8.008
27.424,8.016
27.428,8.048
27.432,8.072
27.436,8.068
27.44,8.016
27.444,8.08
27.448,8.044
27.452,8
27.456,8.028
27.46,8.044
27.464,8.048
27.468,8.004
27.472,8.024
27.476,8.052
27.48,8.04
27.484,8.068
27.488,8.076
27.492,8.056
27.496,8.036
27.5,8.032
27.504,8.06
27.508,8.052
27.512,8.044
27.516,8.108
27.52,8.092
27.524,8.096
27.528,8.156
27.532,8.152
27.536,8.132
27.54,8.184
27.544,8.236
27.548,8.18
27.552,8.236
27.556,8.332
27.56,8.356
27.564,8.42
27.568,8.408
27.572,8.364
27.576,8.32
27.58,8.296
27.584,8.308
27.588,8.24
27.592,8.212
27.596,8.156
27.6,8.136
27.604,8.072
27.608,8.036
27.612,8.028
27.616,8.012
27.62,7.988
27.624,7.968
27.628,7.984
27.632,7.968
27.636,7.916
27.64,7.924
27.644,7.936
27.648,7.94
27.652,7.972
27.656,7.944
27.66,7.944
27.664,7.916
27.668,7.944
27.672,7.984
27.676,7.968
27.68,8
27.684,8.144
27.688,8.308
27.692,8.536
27.696,9.024
27.7,9.656
27.704,9.904
27.708,9.48
27.712,8.704
27.716,8.216
27.72,7.772
27.724,7.644
27.728,7.74
27.732,7.816
27.736,7.912
27.74,7.956
27.744,7.948
27.748,7.972
27.752,7.988
27.756,8.012
27.76,7.972
27.764,8.004
27.768,8.004
27.772,7.996
27.776,7.968
27.78,7.952
27.784,7.972
27.788,7.992
27.792,7.992
27.796,7.996
27.8,7.976
27.804,7.984
27.808,7.968
27.812,8.016
27.816,8.048
27.82,7.996
27.824,7.984
27.828,7.98
27.832,8.012
27.836,8.036
27.84,8.024
27.844,8.048
27.848,8.048
27.852,8.052
27.856,8.04
27.86,8.028
27.864,8.016
27.868,8.068
27.872,8.072
27.876,8.096
27.88,8.084
27.884,8.116
27.888,8.144
27.892,8.144
27.896,8.112
27.9,8.124
27.904,8.144
27.908,8.132
27.912,8.18
27.916,8.192
27.92,8.2
27.924,8.216
27.928,8.24
27.932,8.244
27.936,8.264
27.94,8.276
27.944,8.348
27.948,8.316
27.952,8.332
27.956,8.372
27.96,8.38
27.964,8.432
27.968,8.444
27.972,8.448
27.976,8.432
27.98,8.456
27.984,8.46
27.988,8.468
27.992,8.436
27.996,8.452
28,8.444
28.004,8.5
28.008,8.488
28.012,8.404
28.016,8.36
28.02,8.396
28.024,8.328
28.028,8.324
28.032,8.312
28.036,8.248
28.04,8.232
28.044,8.268
28.048,8.208
28.052,8.148
28.056,8.156
28.06,8.136
28.064,8.076
28.068,8.072
28.072,8.088
28.076,8.084
28.08,8.084
28.084,8.072
28.088,8.044
28.092,8.028
28.096,8.064
28.1,8.08
28.104,8.088
28.108,8.08
28.112,8.06
28.116,8.04
28.12,8.092
28.124,8.024
28.128,7.98
28.132,8.02
28.136,8.064
28.14,8.04
28.144,8.04
28.148,8.028
28.152,8.064
28.156,8.088
28.16,8.088
28.164,8.016
28.168,7.992
28.172,8.044
28.176,8.064
28.18,8.028
28.184,8.056
28.188,8.08
28.192,8.092
28.196,8.104
28.2,8.088
28.204,8.072
28.208,8.076
28.212,8.056
28.216,8.08
28.22,8.064
28.224,8.068
28.228,8.092
28.232,8.016
28.236,8.06
28.24,8.092
28.244,8.068
28.248,8.052
28.252,8.092
28.256,8.132
28.26,8.108
28.264,8.1
28.268,8.076
28.272,8.06
28.276,8.052
28.28,8.044
28.284,8.072
28.288,8.04
28.292,8.068
28.296,8.092
28.3,8.068
28.304,8.028
28.308,8.04
28.312,8.032
28.316,8.08
28.32,8.12
28.324,8.064
28.328,8.032
28.332,8.036
28.336,8.036
28.34,8.044
28.344,8.084
28.348,8.076
28.352,8.04
28.356,8.032
28.36,8.02
28.364,8.072
28.368,8.052
28.372,8.028
28.376,7.996
28.38,8.008
28.384,8.056
28.388,8.052
28.392,8.024
28.396,8.016
28.4,8.052
28.404,8.076
28.408,8.052
28.412,8.028
28.416,8.032
28.42,8.084
28.424,8.068
28.428,8.08
28.432,8.088
28.436,8.056
28.44,8.04
28.444,8.032
28.448,8.064
28.452,8.068
28.456,8.072
28.46,8.012
28.464,7.988
28.468,8.02
28.472,8.028
28.476,8.072
28.48,8.096
28.484,8.152
28.488,8.172
28.492,8.156
28.496,8.148
28.5,8.188
28.504,8.212
28.508,8.236
28.512,8.304
28.516,8.344
28.52,8.38
28.524,8.328
28.528,8.336
28.532,8.352
28.536,8.36
28.54,8.316
28.544,8.248
28.548,8.188
28.552,8.164
28.556,8.1
28.56,8.024
28.564,7.956
28.568,7.968
28.572,7.976
28.576,7.952
28.58,7.936
28.584,7.94
28.588,7.964
28.592,7.916
28.596,7.916
28.6,7.952
28.604,7.892
28.608,7.92
28.612,7.872
28.616,7.88
28.62,7.896
28.624,7.892
28.628,7.888
28.632,7.904
28.636,7.956
28.64,8.072
28.644,8.184
28.648,8.444
28.652,8.956
28.656,9.636
28.66,10.056
28.664,9.788
28.668,8.944
28.672,8.4
28.676,7.908
28.68,7.64
28.684,7.736
28.688,7.8
28.692,7.852
28.696,7.876
28.7,7.904
28.704,7.952
28.708,7.88
28.712,7.912
28.716,7.996
28.72,7.952
28.724,7.956
28.728,7.952
28.732,7.936
28.736,7.96
28.74,7.956
28.744,7.976
28.748,7.976
28.752,7.924
28.756,7.932
28.76,7.964
28.764,7.988
28.768,7.972
28.772,7.948
28.776,7.96
28.78,7.932
28.784,7.948
28.788,7.956
28.792,7.98
28.796,7.964
28.8,7.948
28.804,8.02
28.808,8.012
28.812,8.02
28.816,8.02
28.82,8.02
28.824,8.02
28.828,8.052
28.832,8.036
28.836,8.04
28.84,8.076
28.844,8.1
28.848,8.1
28.852,8.072
28.856,8.08
28.86,8.06
28.864,8.076
28.868,8.124
28.872,8.188
28.876,8.14
28.88,8.124
28.884,8.172
28.888,8.22
28.892,8.24
28.896,8.224
28.9,8.252
28.904,8.28
28.908,8.268
28.912,8.348
28.916,8.396
28.92,8.364
28.924,8.324
28.928,8.448
28.932,8.408
28.936,8.404
28.94,8.476
28.944,8.444
28.948,8.416
28.952,8.376
28.956,8.408
28.96,8.436
28.964,8.408
28.968,8.424
28.972,8.372
28.976,8.344
28.98,8.3
28.984,8.24
28.988,8.2
28.992,8.196
28.996,8.212
29,8.16
29.004,8.16
29.008,8.104
29.012,8.044
29.016,8.028
29.02,8.084
29.024,8.068
29.028,8.032
29.032,8
29.036,8.024
29.04,7.96
29.044,7.988
29.048,8.008
29.052,8.004
29.056,8.016
29.06,8
29.064,7.988
29.068,8.02
29.072,8
29.076,7.924
29.08,7.948
29.084,7.972
29.088,7.972
29.092,7.948
29.096,7.948
29.1,7.952
29.104,8.02
29.108,7.948
29.112,7.896
29.116,7.976
29.12,7.984
29.124,7.968
29.128,7.984
29.132,7.984
29.136,7.988
29.14,7.976
29.144,7.996
29.148,7.972
29.152,7.976
29.156,7.968
29.16,8.012
29.164,8.012
29.168,8.016
29.172,8.032
29.176,8.016
29.18,7.964
29.184,7.948
29.188,7.988
29.192,8.004
29.196,7.996
29.2,7.996
29.204,8.028
29.208,7.992
29.212,7.964
29.216,7.972
29.22,8.012
29.224,8.06
29.228,8.052
29.232,7.988
29.236,7.948
29.24,7.972
29.244,7.968
29.248,7.964
29.252,7.984
29.256,8.02
29.26,8.056
29.264,8
29.268,7.984
29.272,7.964
29.276,7.932
29.28,7.936
29.284,7.96
29.288,7.972
29.292,7.98
29.296,7.992
29.3,7.924
29.304,7.924
29.308,7.98
29.312,7.976
29.316,7.98
29.32,7.96
29.324,7.956
29.328,7.984
29.332,7.972
29.336,7.956
29.34,7.968
29.344,7.968
29.348,7.972
29.352,7.944
29.356,7.972
29.36,7.988
29.364,7.992
29.368,7.932
29.372,7.94
29.376,7.984
29.38,7.996
29.384,7.988
29.388,7.972
29.392,7.924
29.396,7.924
29.4,7.96
29.404,7.972
29.408,7.956
29.412,7.956
29.416,7.972
29.42,8.012
29.424,8.02
29.428,8.06
29.432,8.076
29.436,8.06
29.44,8.064
29.444,8.1
29.448,8.124
29.452,8.176
29.456,8.28
29.46,8.292
29.464,8.26
29.468,8.304
29.472,8.26
29.476,8.2
29.48,8.204
29.484,8.236
29.488,8.224
29.492,8.16
29.496,8.124
29.5,8.036
29.504,7.976
29.508,7.964
29.512,7.924
29.516,7.9
29.52,7.92
29.524,7.9
29.528,7.908
29.532,7.928
29.536,7.892
29.54,7.832
29.544,7.824
29.548,7.828
29.552,7.84
29.556,7.82
29.56,7.848
29.564,7.908
29.568,7.888
29.572,7.876
29.576,7.848
29.58,7.84
29.584,7.92
29.588,8.124
29.592,8.376
29.596,8.84
29.6,9.528
29.604,10.092
29.608,10.012
29.612,9.148
29.616,8.464
29.62,7.944
29.624,7.612
29.628,7.668
29.632,7.712
29.636,7.828
29.64,7.888
29.644,7.892
29.648,7.884
29.652,7.912
29.656,7.908
29.66,7.928
29.664,7.888
29.668,7.864
29.672,7.908
29.676,7.948
29.68,7.968
29.684,7.944
29.688,7.896
29.692,7.932
29.696,7.92
29.7,7.948
29.704,7.936
29.708,7.932
29.712,7.928
29.716,7.948
29.72,8
29.724,7.932
29.728,7.896
29.732,7.92
29.736,7.928
29.74,7.92
29.744,7.964
29.748,7.948
29.752,7.976
29.756,7.984
29.76,8.024
29.764,8.032
29.768,8
29.772,7.984
29.776,8.032
29.78,8.048
29.784,8.048
29.788,8.06
29.792,8.072
29.796,8.076
29.8,8.06
29.804,8.052
29.808,8.06
29.812,8.08
29.816,8.104
29.82,8.128
29.824,8.184
29.828,8.244
29.832,8.232
29.836,8.232
29.84,8.216
29.844,8.24
29.848,8.256
29.852,8.28
29.856,8.308
29.86,8.328
29.864,8.344
29.868,8.356
29.872,8.372
29.876,8.444
29.88,8.452
29.884,8.448
29.888,8.456
29.892,8.452
29.896,8.424
29.9,8.432
29.904,8.404
29.908,8.384
29.912,8.384
29.916,8.396
29.92,8.324
29.924,8.292
29.928,8.296
29.932,8.3
29.936,8.272
29.94,8.204
29.944,8.184
29.948,8.172
29.952,8.112
29.956,8.104
29.96,8.072
29.964,8.08
29.968,8.056
29.972,8.036
29.976,8.032
29.98,8.036
29.984,8.072
29.988,8.06
29.992,8.064
29.996,8.036
30,8.024
30.004,8.068
30.008,8.012
30.012,7.984
30.016,8.036
30.02,8.068
30.024,8.012
30.028,7.992
30.032,7.996
30.036,8.048
30.04,7.996
30.044,7.992
30.048,8.012
30.052,8.004
30.056,8
30.06,8.016
30.064,8.02
30.068,8.012
30.072,7.984
30.076,8.02
30.08,8.052
30.084,8.056
30.088,8.032
30.092,8.008
30.096,8.052
30.1,8.088
30.104,8.104
30.108,8.084
30.112,8.032
30.116,8
30.12,8.06
30.124,8.028
30.128,8.024
30.132,8.044
30.136,8.072
30.14,8.1
30.144,8.096
30.148,8.04
30.152,7.984
30.156,8.076
30.16,8.068
30.164,8.06
30.168,8.06
30.172,8.048
30.176,8.064
30.18,8.044
30.184,8.048
30.188,8.048
30.192,8.044
30.196,8.088
30.2,8.06
30.204,8.076
30.208,8.024
30.212,8.04
30.216,8.056
30.22,8.068
30.224,8.044
30.228,8.044
30.232,8.016
30.236,8.06
30.24,8.012
30.244,8.04
30.248,8.048
30.252,8.024
30.256,8.012
30.26,8.036
30.264,8.056
30.268,8.092
30.272,8.068
30.276,8.028
30.28,7.968
30.284,8
30.288,8.068
30.292,8.052
30.296,8.036
30.3,8.02
30.304,8.028
30.308,8.036
30.312,8.048
30.316,8.048
30.32,8.056
30.324,8.044
30.328,8.056
30.332,8.116
30.336,8.108
30.34,8.032
30.344,7.992
30.348,7.988
30.352,8.044
30.356,8.04
30.36,8.016
30.364,8.02
30.368,8.044
30.372,8.052
30.376,8.036
30.38,8.016
30.384,8.06
30.388,8.08
30.392,8.128
30.396,8.18
30.4,8.132
30.404,8.168
30.408,8.188
30.412,8.224
30.416,8.244
30.42,8.292
30.424,8.352
30.428,8.4
30.432,8.428
30.436,8.356
30.44,8.296
30.444,8.328
30.448,8.324
30.452,8.296
30.456,8.252
30.46,8.176
30.464,8.136
30.468,8.112
30.472,8.08
30.476,8.032
30.48,7.98
30.484,8.06
30.488,8.016
30.492,7.908
30.496,7.94
30.5,7.988
30.504,7.98
30.508,7.94
30.512,7.94
30.516,7.952
30.52,7.972
30.524,7.928
30.528,7.912
30.532,7.948
30.536,7.952
30.54,7.948
30.544,7.992
30.548,8.024
30.552,8.144
30.556,8.324
30.56,8.612
30.564,9.116
30.568,9.752
30.572,10.032
30.576,9.576
30.58,8.78
30.584,8.292
30.588,7.84
30.592,7.708
30.596,7.752
30.6,7.824
30.604,7.912
30.608,7.944
30.612,7.984
30.616,8
30.62,8.004
30.624,8.028
30.628,8.016
30.632,8.012
30.636,8
30.64,8.008
30.644,8.052
30.648,8.044
30.652,8.028
30.656,8.044
30.66,8.036
30.664,8.012
30.668,8.048
30.672,8.024
30.676,8.036
30.68,8.044
30.684,8.088
30.688,8.092
30.692,8.024
30.696,8.028
30.7,8.056
30.704,8.048
30.708,8.072
30.712,8.068
30.716,8.076
30.72,8.1
30.724,8.044
30.728,8.064
30.732,8.076
30.736,8.128
30.74,8.096
30.744,8.124
30.748,8.156
30.752,8.184
30.756,8.192
30.76,8.18
30.764,8.164
30.768,8.164
30.772,8.164
30.776,8.208
30.78,8.224
30.784,8.196
30.788,8.272
30.792,8.268
30.796,8.256
30.8,8.264
30.804,8.28
30.808,8.34
30.812,8.336
30.816,8.372
30.82,8.384
30.824,8.428
30.828,8.42
30.832,8.448
30.836,8.472
30.84,8.508
30.844,8.508
30.848,8.5
30.852,8.528
30.856,8.536
30.86,8.488
30.864,8.52
30.868,8.552
30.872,8.508
30.876,8.448
30.88,8.44
30.884,8.46
30.888,8.436
30.892,8.424
30.896,8.352
30.9,8.348
30.904,8.312
30.908,8.28
30.912,8.228
30.916,8.228
30.92,8.236
30.924,8.224
30.928,8.168
30.932,8.156
30.936,8.136
30.94,8.124
30.944,8.148
30.948,8.168
30.952,8.244
30.956,8.172
30.96,8.084
30.964,8.04
30.968,8.092
30.972,8.088
30.976,8.084
30.98,8.048
30.984,8.088
30.988,8.128
30.992,8.12
30.996,8.1
31,8.108
31.004,8.08
31.008,8.064
31.012,8.052
31.016,8.092
31.02,8.104
31.024,8.108
31.028,8.128
31.032,8.132
31.036,8.136
31.04,8.068
31.044,8.088
31.048,8.124
31.052,8.128
31.056,8.12
31.06,8.104
31.064,8.072
31.068,8.072
31.072,8.136
31.076,8.156
31.08,8.14
31.084,8.14
31.088,8.16
31.092,8.144
31.096,8.112
31.1,8.092
31.104,8.124
31.108,8.144
31.112,8.116
31.116,8.116
31.12,8.16
31.124,8.12
31.128,8.092
31.132,8.136
31.136,8.18
31.14,8.136
31.144,8.1
31.148,8.104
31.152,8.096
31.156,8.156
31.16,8.136
31.164,8.1
31.168,8.092
31.172,8.108
31.176,8.136
31.18,8.112
31.184,8.128
31.188,8.08
31.192,8.064
31.196,8.084
31.2,8.128
31.204,8.144
31.208,8.112
31.212,8.112
31.216,8.084
31.22,8.104
31.224,8.124
31.228,8.12
31.232,8.084
31.236,8.1
31.24,8.152
31.244,8.18
31.248,8.116
31.252,8.092
31.256,8.092
31.26,8.12
31.264,8.088
31.268,8.072
31.272,8.088
31.276,8.132
31.28,8.096
31.284,8.1
31.288,8.1
31.292,8.108
31.296,8.104
31.3,8.12
31.304,8.132
31.308,8.128
31.312,8.14
31.316,8.132
31.32,8.084
31.324,8.064
31.328,8.064
31.332,8.072
31.336,8.08
31.34,8.072
31.344,8.136
31.348,8.136
31.352,8.14
31.356,8.148
31.36,8.144
31.364,8.16
31.368,8.22
31.372,8.228
31.376,8.244
31.38,8.264
31.384,8.344
31.388,8.4
31.392,8.412
31.396,8.384
31.4,8.352
31.404,8.368
31.408,8.38
31.412,8.444
31.416,8.372
31.42,8.288
31.424,8.228
31.428,8.184
31.432,8.108
31.436,8.12
31.44,8.064
31.444,8.02
31.448,7.988
31.452,8.008
31.456,8.008
31.46,8.016
31.464,7.964
31.468,7.956
31.472,7.976
31.476,7.968
31.48,7.94
31.484,8.004
31.488,8.024
31.492,7.984
31.496,7.928
31.5,7.96
31.504,7.968
31.508,7.976
31.512,7.992
31.516,8.06
31.52,8.244
31.524,8.452
31.528,8.86
31.532,9.492
31.536,9.964
31.54,9.812
31.544,9.028
31.548,8.464
31.552,7.944
31.556,7.632
31.56,7.748
31.564,7.828
31.568,7.948
31.572,7.952
31.576,7.988
31.58,7.96
31.584,8.028
31.588,8.052
31.592,7.996
31.596,7.988
31.6,8.028
31.604,7.992
31.608,8.004
31.612,7.98
31.616,7.98
31.62,8.032
31.624,8.028
31.628,7.976
31.632,7.968
31.636,8.004
31.64,8.016
31.644,8.02
31.648,8.028
31.652,8.032
31.656,8.052
31.66,8.048
31.664,8.036
31.668,8.012
31.672,8.016
31.676,8.028
31.68,8.052
31.684,8.112
31.688,8.116
31.692,8.076
31.696,8.048
31.7,8.108
31.704,8.108
31.708,8.1
31.712,8.104
31.716,8.128
31.72,8.124
31.724,8.112
31.728,8.148
31.732,8.148
31.736,8.18
31.74,8.164
31.744,8.164
31.748,8.116
31.752,8.196
31.756,8.232
31.76,8.292
31.764,8.224
31.768,8.288
31.772,8.332
31.776,8.34
31.78,8.252
31.784,8.3
31.788,8.38
31.792,8.408
31.796,8.392
31.8,8.42
31.804,8.46
31.808,8.44
31.812,8.452
31.816,8.476
31.82,8.488
31.824,8.484
31.828,8.484
31.832,8.464
31.836,8.484
31.84,8.488
31.844,8.492
31.848,8.432
31.852,8.396
31.856,8.372
31.86,8.324
31.864,8.264
31.868,8.268
31.872,8.228
31.876,8.22
31.88,8.16
31.884,8.148
31.888,8.168
31.892,8.108
31.896,8.08
31.9,8.1
31.904,8.108
31.908,8.116
31.912,8.076
31.916,8.076
31.92,8.092
31.924,8.068
31.928,8.016
31.932,8.004
31.936,8.044
31.94,8.132
31.944,8.104
31.948,8.02
31.952,8.012
31.956,8.032
31.96,8.032
31.964,7.972
31.968,8.004
31.972,8.024
31.976,8.04
31.98,8.004
31.984,8.056
31.988,8.06
31.992,8.036
31.996,7.996
32,8.016
32.004,8.04
32.008,8.024
32.012,7.996
32.016,8.016
32.02,8.032
32.024,8.064
32.028,8.056
32.032,8.04
32.036,8.032
32.04,8.032
32.044,8.068
32.048,8.036
32.052,8.056
32.056,8.04
32.06,8.02
32.064,8.012
32.068,8.056
32.072,8.06
32.076,8.052
32.08,8.052
32.084,8.068
32.088,8.112
32.092,8.096
32.096,8
32.1,7.996
32.104,8.06
32.108,8.064
32.112,8.028
32.116,8.084
32.12,8.088
32.124,8.016
32.128,7.996
32.132,8.024
32.136,8.048
32.14,8.072
32.144,8.052
32.148,7.992
32.152,8
32.156,8.048
32.16,8.052
32.164,7.996
32.168,8.02
32.172,8.024
32.176,8.036
32.18,7.988
32.184,8.02
32.188,8.044
32.192,8.084
32.196,8.044
32.2,8.044
32.204,8.032
32.208,8.016
32.212,7.976
32.216,8.024
32.22,8.036
32.224,7.996
32.228,8.016
32.232,8.016
32.236,8.044
32.24,8.004
32.244,7.984
32.248,7.936
32.252,7.944
32.256,8
32.26,8.024
32.264,7.964
32.268,8
32.272,8.004
32.276,8.028
32.28,8.012
32.284,8.012
32.288,7.972
32.292,7.968
32.296,7.936
32.3,7.992
32.304,8.052
32.308,8.024
32.312,8.032
32.316,7.996
32.32,8.004
32.324,7.992
32.328,8.052
32.332,8.076
32.336,8.1
32.34,8.1
32.344,8.136
32.348,8.14
32.352,8.208
32.356,8.22
32.36,8.272
32.364,8.3
32.368,8.352
32.372,8.316
32.376,8.276
32.38,8.236
32.384,8.264
32.388,8.264
32.392,8.232
32.396,8.144
32.4,8.092
32.404,8
32.408,7.944
32.412,7.928
32.416,7.92
32.42,7.916
32.424,7.912
32.428,7.896
32.432,7.86
32.436,7.868
32.44,7.864
32.444,7.924
32.448,7.868
32.452,7.816
32.456,7.872
32.46,7.892
32.464,7.816
32.468,7.876
32.472,7.88
32.476,7.884
32.48,7.816
32.484,7.94
32.488,8.116
32.492,8.344
32.496,8.7
32.5,9.356
32.504,10.016
32.508,10.132
32.512,9.448
32.516,8.664
32.52,8.112
32.524,7.656
32.528,7.632
32.532,7.684
32.536,7.788
32.54,7.8
32.544,7.904
32.548,7.888
32.552,7.908
32.556,7.916
32.56,7.956
32.564,7.908
32.568,7.912
32.572,7.892
32.576,7.9
32.58,7.912
32.584,7.936
32.588,7.944
32.592,7.956
32.596,7.884
32.6,7.92
32.604,7.92
32.608,7.94
32.612,7.892
32.616,7.9
32.62,7.924
32.624,7.964
32.628,8.012
32.632,7.956
32.636,7.944
32.64,7.916
32.644,7.964
32.648,7.904
32.652,7.94
32.656,7.98
32.66,8.028
32.664,7.992
32.668,8.02
32.672,8.032
32.676,8.044
32.68,8.016
32.684,8.032
32.688,8.04
32.692,8.076
32.696,8.068
32.7,8.088
32.704,8.084
32.708,8.084
32.712,8.084
32.716,8.108
32.72,8.152
32.724,8.136
32.728,8.156
32.732,8.136
32.736,8.196
32.74,8.2
32.744,8.288
32.748,8.256
32.752,8.248
32.756,8.296
32.76,8.364
32.764,8.292
32.768,8.368
32.772,8.404
32.776,8.436
32.78,8.384
32.784,8.404
32.788,8.444
32.792,8.452
32.796,8.428
32.8,8.428
32.804,8.42
32.808,8.444
32.812,8.432
32.816,8.376
32.82,8.34
32.824,8.308
32.828,8.34
32.832,8.26
32.836,8.192
32.84,8.172
32.844,8.196
32.848,8.112
32.852,8.132
32.856,8.096
32.86,8.104
32.864,8.06
32.868,8.056
32.872,8.044
32.876,8.096
32.88,8.048
32.884,8
32.888,8.016
32.892,8.024
32.896,8
32.9,8.016
32.904,8.008
32.908,7.988
32.912,8
32.916,8.028
32.92,8.028
32.924,8.008
32.928,8.016
32.932,7.924
32.936,7.94
32.94,8.02
32.944,8.008
32.948,7.932
32.952,7.948
32.956,7.968
32.96,7.984
32.964,7.944
32.968,8.02
32.972,7.984
32.976,8.008
32.98,7.968
32.984,7.96
32.988,7.98
32.992,7.964
32.996,7.956
33,8.004
33.004,8.032
33.008,8.052
33.012,8.052
33.016,8
33.02,8.02
33.024,7.988
33.028,8.036
33.032,8.004
33.036,7.988
33.04,8.016
33.044,8.044
33.048,7.984
33.052,8.008
33.056,7.988
33.06,8.016
33.064,8.004
33.068,8.04
33.072,8.024
33.076,8.04
33.08,8.032
33.084,8
33.088,8.004
33.092,8.012
33.096,7.996
33.1,7.976
33.104,8.06
33.108,8.04
33.112,8.02
33.116,7.96
33.12,7.932
33.124,7.976
33.128,8.04
33.132,8.028
33.136,8.032
33.14,8.016
33.144,7.968
33.148,7.936
33.152,8.032
33.156,7.992
33.16,8
33.164,7.964
33.168,8.024
33.172,8.016
33.176,8.06
33.18,8.008
33.184,7.984
33.188,8.012
33.192,7.996
33.196,7.932
33.2,7.972
33.204,8.032
33.208,8.04
33.212,8.004
33.216,7.952
33.22,7.952
33.224,7.976
33.228,8.004
33.232,7.96
33.236,7.996
33.24,7.988
33.244,8.016
33.248,7.94
33.252,7.976
33.256,7.984
33.26,8.008
33.264,7.972
33.268,7.988
33.272,8.028
33.276,8.06
33.28,8.032
33.284,7.972
33.288,7.928
33.292,7.976
33.296,7.992
33.3,8
33.304,8.072
33.308,8.104
33.312,8.088
33.316,8.108
33.32,8.16
33.324,8.168
33.328,8.188
33.332,8.08
33.336,8.268
33.34,8.284
33.344,8.372
33.348,8.332
33.352,8.324
33.356,8.3
33.36,8.328
33.364,8.256
33.368,8.232
33.372,8.148
33.376,8.16
33.38,8.064
33.384,8.036
33.388,8.036
33.392,7.976
33.396,7.968
33.4,7.908
33.404,7.952
33.408,7.912
33.412,7.908
33.416,7.86
33.42,7.888
33.424,7.896
33.428,7.912
33.432,7.82
33.436,7.872
33.44,7.92
33.444,7.94
33.448,7.88
33.452,7.868
33.456,7.88
33.46,7.932
33.464,7.976
33.468,8.144
33.472,8.368
33.476,8.716
33.48,9.264
33.484,9.884
33.488,9.972
33.492,9.276
33.496,8.568
33.5,8.024
33.504,7.64
33.508,7.64
33.512,7.772
33.516,7.804
33.52,7.928
33.524,7.972
33.528,7.996
33.532,7.936
33.536,7.916
33.54,7.9
33.544,7.936
33.548,7.928
33.552,7.96
33.556,7.932
33.56,7.956
33.564,7.944
33.568,8.012
33.572,7.916
33.576,7.96
33.58,7.964
33.584,7.948
33.588,7.988
33.592,7.984
33.596,7.964
33.6,7.98
33.604,7.992
33.608,7.972
33.612,7.976
33.616,7.968
33.62,8.008
33.624,8
33.628,8.044
33.632,8.004
33.636,8.056
33.64,8.032
33.644,8.052
33.648,7.996
33.652,8.092
33.656,8.072
33.66,8.092
33.664,8.052
33.668,8.052
33.672,8.08
33.676,8.104
33.68,8.088
33.684,8.104
33.688,8.128
33.692,8.132
33.696,8.176
33.7,8.148
33.704,8.192
33.708,8.16
33.712,8.192
33.716,8.22
33.72,8.272
33.724,8.272
33.728,8.324
33.732,8.3
33.736,8.316
33.74,8.376
33.744,8.4
33.748,8.348
33.752,8.388
33.756,8.412
33.76,8.476
33.764,8.42
33.768,8.448
33.772,8.468
33.776,8.488
33.78,8.452
33.784,8.428
33.788,8.452
33.792,8.448
33.796,8.424
33.8,8.412
33.804,8.432
33.808,8.372
33.812,8.332
33.816,8.252
33.82,8.244
33.824,8.224
33.828,8.208
33.832,8.12
33.836,8.148
33.84,8.144
33.844,8.164
33.848,8.12
33.852,8.116
33.856,8.076
33.86,8.068
33.864,8.04
33.868,8.048
33.872,8.048
33.876,8.064
33.88,8.056
33.884,8.052
33.888,8.104
33.892,8.068
33.896,8.044
33.9,7.98
33.904,8.036
33.908,8.036
33.912,8.064
33.916,8.016
33.92,8.06
33.924,8.04
33.928,8.104
33.932,8.044
33.936,8.04
33.94,8.012
33.944,8.028
33.948,8.004
33.952,8.04
33.956,8.04
33.96,8.072
33.964,8.012
33.968,8.044
33.972,8.08
33.976,8.04
33.98,8.02
33.984,8.052
33.988,8.056
33.992,8.088
33.996,8.096
34,8.072
34.004,8.112
34.008,8.052
34.012,8.092
34.016,8.044
34.02,8.06
34.024,8.036
34.028,8.092
34.032,8.068
34.036,8.104
34.04,8.104
34.044,8.12
34.048,8.068
34.052,8.036
34.056,8.012
34.06,8.056
34.064,8.024
34.068,8.056
34.072,8.1
34.076,8.1
34.08,8.096
34.084,8.08
34.088,8.104
34.092,8.02
34.096,8.028
34.1,8.032
34.104,8.064
34.108,8.028
34.112,8.072
34.116,8.012
34.12,8.1
34.124,8.064
34.128,8.076
34.132,8.032
34.136,8.048
34.14,8.06
34.144,8.084
34.148,8.04
34.152,8.016
34.156,8.028
34.16,8.12
34.164,8.072
34.168,8.04
34.172,8.068
34.176,8.06
34.18,8.056
34.184,7.992
34.188,8.044
34.192,8.024
34.196,8.052
34.2,8.028
34.204,8.084
34.208,8.08
34.212,8.092
34.216,8.04
34.22,8.048
34.224,8.02
34.228,8.06
34.232,8.024
34.236,8.048
34.24,8.064
34.244,8.12
34.248,8.056
34.252,7.992
34.256,8.016
34.26,8.076
34.264,8.04
34.268,8.056
34.272,8.056
34.276,8.068
34.28,8.012
34.284,8.048
34.288,8.08
34.292,8.06
34.296,8.08
34.3,8.044
34.304,8.08
34.308,8.088
34.312,8.188
34.316,8.14
34.32,8.148
34.324,8.164
34.328,8.22
34.332,8.184
34.336,8.256
34.34,8.308
34.344,8.368
34.348,8.404
34.352,8.42
34.356,8.368
34.36,8.4
34.364,8.312
34.368,8.272
34.372,8.284
34.376,8.296
34.38,8.2
34.384,8.096
34.388,8.148
34.392,8.108
34.396,8.06
34.4,7.984
34.404,8.02
34.408,8.052
34.412,8.036
34.416,7.916
34.42,7.952
34.424,7.904
34.428,7.96
34.432,7.92
34.436,7.968
34.44,7.956
34.444,7.952
34.448,7.924
34.452,7.912
34.456,7.944
34.46,8.008
34.464,7.988
34.468,7.996
34.472,8.144
34.476,8.372
34.48,8.616
34.484,9.088
34.488,9.732
34.492,9.976
34.496,9.508
34.5,8.704
34.504,8.248
34.508,7.768
34.512,7.664
34.516,7.732
34.52,7.884
34.524,7.848
34.528,7.98
34.532,7.924
34.536,7.972
34.54,8.008
34.544,8.056
34.548,7.992
34.552,8.036
34.556,8.036
34.56,8.036
34.564,7.96
34.568,7.976
34.572,8.024
34.576,8.016
34.58,8.048
34.584,8.016
34.588,8.056
34.592,8.028
34.596,8.052
34.6,7.956
34.604,7.992
34.608,8.016
34.612,8.036
34.616,7.976
34.62,8.084
34.624,8.056
34.628,8.072
34.632,8.024
34.636,8.06
34.64,8.096
34.644,8.1
34.648,8.056
34.652,8.08
34.656,8.108
34.66,8.092
34.664,8.076
34.668,8.08
34.672,8.132
34.676,8.108
34.68,8.14
34.684,8.14
34.688,8.148
34.692,8.188
34.696,8.2
34.7,8.176
34.704,8.22
34.708,8.216
34.712,8.232
34.716,8.24
34.72,8.26
34.724,8.26
34.728,8.316
34.732,8.28
34.736,8.344
34.74,8.368
34.744,8.452
34.748,8.432
34.752,8.424
34.756,8.44
34.76,8.452
34.764,8.452
34.768,8.476
34.772,8.516
34.776,8.528
34.78,8.536
34.784,8.504
34.788,8.504
34.792,8.464
34.796,8.468
34.8,8.444
34.804,8.46
34.808,8.388
34.812,8.364
34.816,8.364
34.82,8.364
34.824,8.348
34.828,8.3
34.832,8.184
34.836,8.2
34.84,8.188
34.844,8.216
34.848,8.148
34.852,8.12
34.856,8.132
34.86,8.156
34.864,8.112
34.868,8.052
34.872,8.08
34.876,8.1
34.88,8.108
34.884,8.096
34.888,8.128
34.892,8.1
34.896,8.096
34.9,8.028
34.904,8.096
34.908,8.06
34.912,8.072
34.916,8.032
34.92,8.112
34.924,8.096
34.928,8.112
34.932,8.02
34.936,8.016
34.94,8.024
34.944,8.048
34.948,8.04
34.952,8.028
34.956,8.04
34.96,8.076
34.964,8.088
34.968,8.072
34.972,8.096
34.976,8.064
34.98,8.056
34.984,8.012
34.988,8.032
34.992,8.044
34.996,8.096
35,8.068
35.004,8.12
35.008,8.06
35.012,8.108
35.016,8.056
35.02,8.084
35.024,8.084
35.028,8.12
35.032,8.06
35.036,8.056
35.04,8.056
35.044,8.104
35.048,8.104
35.052,8.076
35.056,8.1
35.06,8.096
35.064,8.08
35.068,8.088
35.072,8.116
35.076,8.108
35.08,8.1
35.084,8.032
35.088,8.06
35.092,8.048
35.096,8.064
35.1,8.012
35.104,8.064
35.108,8.06
35.112,8.112
35.116,8.064
35.12,8.056
35.124,8.032
35.128,8.068
35.132,8.012
35.136,8.04
35.14,8.036
35.144,8.092
35.148,8.072
35.152,8.072
35.156,8.064
35.16,8.112
35.164,8.032
35.168,7.972
35.172,8.036
35.176,8.076
35.18,8.088
35.184,7.956
35.188,8.028
35.192,8.072
35.196,8.12
35.2,8.052
35.204,8.092
35.208,8.028
35.212,8.048
35.216,8.02
35.22,8.056
35.224,8.036
35.228,8.044
35.232,8.02
35.236,8.024
35.24,8.06
35.244,8.084
35.248,8.068
35.252,8.048
35.256,8.064
35.26,8.032
35.264,8.02
35.268,7.996
35.272,8.044
35.276,8.052
35.28,8.02
35.284,8.032
35.288,8.08
35.292,8.072
35.296,8.072
35.3,8.024
35.304,8.088
35.308,8.108
35.312,8.164
35.316,8.12
35.32,8.14
35.324,8.204
35.328,8.228
35.332,8.236
35.336,8.356
35.34,8.336
35.344,8.368
35.348,8.348
35.352,8.332
35.356,8.356
35.36,8.344
35.364,8.268
35.368,8.22
35.372,8.248
35.376,8.2
35.38,8.164
35.384,8.008
35.388,8.012
35.392,7.996
35.396,8.024
35.4,7.916
35.404,7.996
35.408,7.94
35.412,8
35.416,7.908
35.42,7.872
35.424,7.9
35.428,7.916
35.432,7.9
35.436,7.868
35.44,7.916
35.444,7.928
35.448,7.916
35.452,7.888
35.456,7.924
35.46,7.948
35.464,7.976
35.468,8.128
35.472,8.416
35.476,8.78
35.48,9.384
35.484,9.924
35.488,9.976
35.492,9.264
35.496,8.612
35.5,8.04
35.504,7.716
35.508,7.644
35.512,7.776
35.516,7.816
35.52,7.884
35.524,7.928
35.528,7.96
35.532,7.912
35.536,7.936
35.54,7.924
35.544,7.952
35.548,7.948
35.552,7.94
35.556,7.972
35.56,8
35.564,7.968
35.568,7.956
35.572,7.984
35.576,7.92
35.58,7.972
35.584,7.952
35.588,7.956
35.592,7.984
35.596,8.012
35.6,7.936
35.604,7.976
35.608,8.008
35.612,8.008
35.616,7.936
35.62,7.952
35.624,7.976
35.628,8.02
35.632,8.004
35.636,7.996
35.64,8.012
35.644,8.008
35.648,8.004
35.652,8
35.656,8.068
35.66,8.06
35.664,8.052
35.668,8.044
35.672,8.108
35.676,8.108
35.68,8.108
35.684,8.06
35.688,8.112
35.692,8.08
35.696,8.14
35.7,8.1
35.704,8.16
35.708,8.216
35.712,8.232
35.716,8.164
35.72,8.176
35.724,8.252
35.728,8.308
35.732,8.304
35.736,8.288
35.74,8.336
35.744,8.368
35.748,8.36
35.752,8.368
35.756,8.468
35.76,8.472
35.764,8.46
35.768,8.448
35.772,8.456
35.776,8.44
35.78,8.388
35.784,8.364
35.788,8.456
35.792,8.392
35.796,8.392
35.8,8.384
35.804,8.328
35.808,8.336
35.812,8.304
35.816,8.248
35.82,8.236
35.824,8.196
35.828,8.16
35.832,8.12
35.836,8.084
35.84,8.092
35.844,8.136
35.848,8.112
35.852,8.064
35.856,8.048
35.86,8.052
35.864,8.008
35.868,7.932
35.872,8.012
35.876,8.032
35.88,8.028
35.884,7.948
35.888,7.984
35.892,7.992
35.896,8.02
35.9,7.932
35.904,7.976
35.908,7.976
35.912,8.008
35.916,7.98
35.92,7.992
35.924,7.968
35.928,8.04
35.932,8
35.936,7.96
35.94,7.976
35.944,7.988
35.948,8.012
35.952,7.936
35.956,7.996
35.96,8.016
35.964,7.972
35.968,7.944
35.972,7.992
35.976,7.96
35.98,7.968
35.984,7.968
35.988,8.02
35.992,8.012
35.996,8.008
36,7.96
36.004,8
36.008,7.984
36.012,8.048
36.016,8.02
36.02,8.012
36.024,8.004
36.028,8.02
36.032,8.008
36.036,7.996
36.04,8.016
36.044,8.052
36.048,8.052
36.052,7.964
36.056,7.968
36.06,8.004
36.064,7.976
36.068,7.916
36.072,8.028
36.076,7.992
36.08,8.02
36.084,8.008
36.088,7.98
36.092,7.956
36.096,8.008
36.1,7.984
36.104,8.016
36.108,8.004
36.112,7.992
36.116,7.944
36.12,7.956
36.124,7.992
36.128,8.06
36.132,7.984
36.136,7.924
36.14,7.984
36.144,8.04
36.148,8.024
36.152,7.964
36.156,8
36.16,8.016
36.164,7.988
36.168,7.96
36.172,7.972
36.176,7.972
36.18,7.968
36.184,7.916
36.188,7.984
36.192,8
36.196,8.04
36.2,8.008
36.204,7.98
36.208,7.972
36.212,8.012
36.216,7.98
36.22,7.96
36.224,7.976
36.228,7.98
36.232,7.988
36.236,8.016
36.24,8.024
36.244,8.048
36.248,7.988
36.252,7.92
36.256,7.968
36.26,7.996
36.264,7.992
36.268,7.956
36.272,8.016
36.276,8.032
36.28,8.036
36.284,7.984
36.288,7.98
36.292,8.012
36.296,8.06
36.3,8.036
36.304,8.096
36.308,8.112
36.312,8.132
36.316,8.176
36.32,8.128
36.324,8.144
36.328,8.256
36.332,8.276
36.336,8.248
36.34,8.34
36.344,8.348
36.348,8.328
36.352,8.248
36.356,8.324
36.36,8.336
36.364,8.22
36.368,8.072
36.372,8.12
36.376,8.068
36.38,8.016
36.384,7.968
36.388,7.996
36.392,7.956
36.396,7.992
36.4,7.908
36.404,7.912
36.408,7.896
36.412,7.904
36.416,7.892
36.42,7.876
36.424,7.912
36.428,7.94
36.432,7.916
36.436,7.904
36.44,7.904
36.444,7.872
36.448,7.892
36.452,7.912
36.456,7.952
36.46,8.02
36.464,8.192
36.468,8.468
36.472,8.984
36.476,9.6
36.48,10.036
36.484,9.768
36.488,8.992
36.492,8.436
36.496,7.916
36.5,7.572
36.504,7.684
36.508,7.792
36.512,7.916
36.516,7.92
36.52,7.892
36.524,7.928
36.528,8
36.532,7.996
36.536,7.932
36.54,7.972
36.544,7.976
36.548,8.004
36.552,7.956
36.556,7.948
36.56,7.956
36.564,7.952
36.568,7.908
36.572,7.956
36.576,7.98
36.58,7.996
36.584,7.976
36.588,7.996
36.592,7.992
36.596,8
36.6,7.98
36.604,7.968
36.608,7.972
36.612,8.052
36.616,8.016
36.62,7.988
36.624,7.98
36.628,8.056
36.632,8.068
36.636,8.044
36.64,8
36.644,8.024
36.648,8.088
36.652,8.048
36.656,8.104
36.66,8.088
36.664,8.064
36.668,8.028
36.672,8.1
36.676,8.076
36.68,8.132
36.684,8.124
36.688,8.136
36.692,8.128
36.696,8.176
36.7,8.192
36.704,8.212
36.708,8.208
36.712,8.276
36.716,8.252
36.72,8.268
36.724,8.3
36.728,8.316
36.732,8.356
36.736,8.32
36.74,8.376
36.744,8.384
36.748,8.412
36.752,8.384
36.756,8.444
36.76,8.46
36.764,8.524
36.768,8.456
36.772,8.464
36.776,8.448
36.78,8.492
36.784,8.452
36.788,8.408
36.792,8.408
36.796,8.416
36.8,8.336
36.804,8.324
36.808,8.328
36.812,8.328
36.816,8.288
36.82,8.18
36.824,8.192
36.828,8.188
36.832,8.152
36.836,8.104
36.84,8.096
36.844,8.088
36.848,8.088
36.852,8.056
36.856,8.072
36.86,8.1
36.864,8.076
36.868,7.996
36.872,8.08
36.876,8.056
36.88,8.048
36.884,7.98
36.888,8.008
36.892,8.076
36.896,8.08
36.9,8.032
36.904,8.02
36.908,8.044
36.912,8.064
36.916,8.04
36.92,8.048
36.924,8.068
36.928,8.048
36.932,8.024
36.936,7.984
36.94,8.028
36.944,8.012
36.948,8.064
36.952,8.016
36.956,8.06
36.96,8.08
36.964,8.08
36.968,8.008
36.972,8.048
36.976,8.064
36.98,8.072
36.984,8.06
36.988,8.056
36.992,8.032
36.996,8.08
37,8.08
37.004,8.072
37.008,8.056
37.012,8.096
37.016,8.096
37.02,8.096
37.024,8.052
37.028,8.052
37.032,8.084
37.036,8.04
37.04,8.052
37.044,8.064
37.048,8.044
37.052,8.044
37.056,8.072
37.06,8.092
37.064,8.096
37.068,7.992
37.072,8.028
37.076,8.068
37.08,8.08
37.084,8.076
37.088,8.104
37.092,8.088
37.096,8.06
37.1,8.064
37.104,8.072
37.108,8.048
37.112,8.04
37.116,8.064
37.12,8.052
37.124,8.04
37.128,8.052
37.132,8.056
37.136,7.996
37.14,8.036
37.144,8.06
37.148,8.06
37.152,8.02
37.156,8.048
37.16,8.076
37.164,8.076
37.168,8.024
37.172,8.044
37.176,8.048
37.18,8.052
37.184,8.068
37.188,8.072
37.192,8.06
37.196,8.06
37.2,8.032
37.204,8.052
37.208,8.052
37.212,8.08
37.216,8.032
37.22,7.996
37.224,8.064
37.228,8.1
37.232,8.056
37.236,8.024
37.24,8.06
37.244,8.036
37.248,8.068
37.252,8
37.256,8.052
37.26,8.04
37.264,8.064
37.268,8.032
37.272,8.112
37.276,8.096
37.28,8.084
37.284,8.064
37.288,8.052
37.292,8.02
37.296,8.068
37.3,8.064
37.304,8.084
37.308,8.144
37.312,8.184
37.316,8.164
37.32,8.116
37.324,8.184
37.328,8.2
37.332,8.276
37.336,8.3
37.34,8.332
37.344,8.368
37.348,8.38
37.352,8.32
37.356,8.356
37.36,8.348
37.364,8.364
37.368,8.244
37.372,8.252
37.376,8.228
37.38,8.172
37.384,8.092
37.388,8.008
37.392,8.028
37.396,8.048
37.4,8.02
37.404,7.944
37.408,7.956
37.412,7.976
37.416,7.968
37.42,7.912
37.424,7.92
37.428,7.924
37.432,7.936
37.436,7.888
37.44,7.888
37.444,7.928
37.448,7.936
37.452,7.888
37.456,7.944
37.46,7.988
37.464,8.04
37.468,8.08
37.472,8.264
37.476,8.544
37.48,9.112
37.484,9.72
37.488,9.912
37.492,9.46
37.496,8.776
37.5,8.244
37.504,7.696
37.508,7.596
37.512,7.732
37.516,7.86
37.52,7.836
37.524,7.908
37.528,7.956
37.532,7.98
37.536,7.936
37.54,7.936
37.544,7.984
37.548,7.98
37.552,7.928
37.556,7.968
37.56,7.996
37.564,8.036
37.568,7.988
37.572,8
37.576,7.996
37.58,7.98
37.584,7.952
37.588,7.976
37.592,7.98
37.596,7.984
37.6,8
37.604,7.964
37.608,8
37.612,7.98
37.616,8.052
37.62,8
37.624,8.004
37.628,8.04
37.632,8.084
37.636,8
37.64,8
37.644,8.02
37.648,8.076
37.652,8.044
37.656,8.056
37.66,8.076
37.664,8.116
37.668,8.076
37.672,8.092
37.676,8.108
37.68,8.12
37.684,8.116
37.688,8.08
37.692,8.16
37.696,8.192
37.7,8.184
37.704,8.12
37.708,8.148
37.712,8.26
37.716,8.26
37.72,8.2
37.724,8.24
37.728,8.276
37.732,8.328
37.736,8.28
37.74,8.316
37.744,8.372
37.748,8.4
37.752,8.376
37.756,8.432
37.76,8.444
37.764,8.48
37.768,8.388
37.772,8.44
37.776,8.428
37.78,8.468
37.784,8.472
37.788,8.448
37.792,8.432
37.796,8.42
37.8,8.444
37.804,8.368
37.808,8.336
37.812,8.292
37.816,8.284
37.82,8.24
37.824,8.212
37.828,8.216
37.832,8.192
37.836,8.132
37.84,8.16
37.844,8.152
37.848,8.112
37.852,8.048
37.856,8.092
37.86,8.1
37.864,8.128
37.868,8.064
37.872,8.04
37.876,8.016
37.88,8.044
37.884,8.064
37.888,8.06
37.892,8.028
37.896,8.04
37.9,8.028
37.904,7.988
37.908,8.004
37.912,8.04
37.916,8.004
37.92,7.96
37.924,8.016
37.928,8.036
37.932,8.024
37.936,7.972
37.94,7.984
37.944,8.056
37.948,8.116
37.952,8.004
37.956,8.024
37.96,8.016
37.964,8.024
37.968,8.016
37.972,8.02
37.976,8.052
37.98,8.06
37.984,8.04
37.988,8.06
37.992,8.06
37.996,8.02
38,8.008
38.004,8.004
38.008,8.04
38.012,8.032
38.016,8.064
38.02,8.012
38.024,8.032
38.028,8.068
38.032,8.064
38.036,7.996
38.04,8.048
38.044,8.024
38.048,8.076
38.052,8.02
38.056,8.04
38.06,8.04
38.064,8.04
38.068,8.024
38.072,8.044
38.076,8.08
38.08,8.056
38.084,8.024
38.088,8.028
38.092,8.052
38.096,8.084
38.1,8.08
38.104,8.024
38.108,8.008
38.112,8
38.116,8
38.12,7.956
38.124,8.016
38.128,8.08
38.132,8.092
38.136,8.012
38.14,8.004
38.144,8
38.148,7.996
38.152,7.928
38.156,7.984
38.16,8.044
38.164,8.056
38.168,8.028
38.172,8.02
38.176,8.048
38.18,8.032
38.184,8.016
38.188,8.004
38.192,8
38.196,8.036
38.2,8.024
38.204,7.996
38.208,8.024
38.212,8.048
38.216,8.076
38.22,7.976
38.224,7.964
38.228,8.012
38.232,8.016
38.236,7.972
38.24,7.996
38.244,8.036
38.248,8.02
38.252,7.996
38.256,8.008
38.26,8.024
38.264,8.024
38.268,8.056
38.272,8.06
38.276,8.048
38.28,8.056
38.284,8.048
38.288,7.996
38.292,7.968
38.296,7.988
38.3,8.016
38.304,8
38.308,8.052
38.312,8.096
38.316,8.152
38.32,8.088
38.324,8.124
38.328,8.18
38.332,8.156
38.336,8.164
38.34,8.26
38.344,8.316
38.348,8.36
38.352,8.364
38.356,8.328
38.36,8.304
38.364,8.308
38.368,8.296
38.372,8.28
38.376,8.256
38.38,8.196
38.384,8.12
38.388,8.072
38.392,8.064
38.396,8.024
38.4,7.968
38.404,7.884
38.408,7.896
38.412,7.924
38.416,7.928
38.42,7.924
38.424,7.952
38.428,7.948
38.432,7.98
38.436,7.852
38.44,7.808
38.444,7.876
38.448,7.92
38.452,7.88
38.456,7.912
38.46,7.924
38.464,7.916
38.468,7.92
38.472,8.044
38.476,8.28
38.48,8.6
38.484,9.136
38.488,9.792
38.492,10.1
38.496,9.72
38.5,8.916
38.504,8.316
38.508,7.856
38.512,7.648
38.516,7.756
38.52,7.78
38.524,7.884
38.528,7.936
38.532,7.94
38.536,7.908
38.54,7.972
38.544,7.984
38.548,7.98
38.552,7.92
38.556,7.928
38.56,7.924
38.564,7.98
38.568,7.94
38.572,7.92
38.576,7.96
38.58,8.016
38.584,7.976
38.588,7.956
38.592,7.992
38.596,7.972
38.6,7.984
38.604,7.944
38.608,7.948
38.612,7.98
38.616,8.04
38.62,7.984
38.624,8.016
38.628,8.012
38.632,8.008
38.636,7.984
38.64,7.992
38.644,8.008
38.648,8.048
38.652,8.06
38.656,8.044
38.66,8.016
38.664,8.028
38.668,8.064
38.672,8.048
38.676,8.072
38.68,8.104
38.684,8.124
38.688,8.12
38.692,8.172
38.696,8.152
38.7,8.128
38.704,8.108
38.708,8.18
38.712,8.228
38.716,8.236
38.72,8.168
38.724,8.188
38.728,8.244
38.732,8.304
38.736,8.268
38.74,8.284
38.744,8.312
38.748,8.388
38.752,8.388
38.756,8.364
38.76,8.44
38.764,8.48
38.768,8.44
38.772,8.448
38.776,8.464
38.78,8.444
38.784,8.452
38.788,8.448
38.792,8.48
38.796,8.44
38.8,8.416
38.804,8.352
38.808,8.372
38.812,8.364
38.816,8.32
38.82,8.256
38.824,8.232
38.828,8.236
38.832,8.24
38.836,8.172
38.84,8.152
38.844,8.108
38.848,8.12
38.852,8.076
38.856,8.04
38.86,8.072
38.864,8.052
38.868,8.032
38.872,8.052
38.876,8.064
38.88,8.084
38.884,8.064
38.888,7.968
38.892,8.028
38.896,8.048
38.9,8.072
38.904,7.984
38.908,8.02
38.912,8.064
38.916,8.044
38.92,7.98
38.924,8.024
38.928,8.044
38.932,8.008
38.936,7.972
38.94,7.984
38.944,8.036
38.948,8.04
38.952,8.032
38.956,7.984
38.96,8.02
38.964,8.016
38.968,8.052
38.972,8.028
38.976,8.036
38.98,8.064
38.984,8.052
38.988,8.04
38.992,8.076
38.996,8.06
39,8.056
39.004,8.036
39.008,8.056
39.012,8.06
39.016,8.08
39.02,8.016
39.024,8.036
39.028,8.088
39.032,8.12
39.036,8.112
39.04,8.068
39.044,8.036
39.048,8.012
39.052,8.016
39.056,8.032
39.06,8.048
39.064,8.084
39.068,8.088
39.072,8.056
39.076,8.06
39.08,8.052
39.084,8.072
39.088,8.016
39.092,8.064
39.096,8.072
39.1,8.096
39.104,8.04
39.108,8.06
39.112,8.048
39.116,8.068
39.12,8.02
39.124,8.02
39.128,8.064
39.132,8.1
39.136,8.028
39.14,8.024
39.144,8.084
39.148,8.04
39.152,8.028
39.156,8.012
39.16,8.032
39.164,8.06
39.168,8.02
39.172,8.008
39.176,8.048
39.18,8.032
39.184,8.048
39.188,8.004
39.192,8.092
39.196,8.064
39.2,8.06
39.204,8.02
39.208,8.036
39.212,8.056
39.216,8.064
39.22,8.016
39.224,8.004
39.228,8.048
39.232,8.108
39.236,8.08
39.24,8.044
39.244,8.016
39.248,8.04
39.252,8.028
39.256,8.024
