0,8.144
0.004,8.14
0.008,8.172
0.012,8.224
0.016,8.244
0.02,8.228
0.024,8.26
0.028,8.308
0.032,8.344
0.036,8.34
0.04,8.364
0.044,8.448
0.048,8.492
0.052,8.484
0.056,8.512
0.06,8.632
0.064,8.692
0.068,8.724
0.072,8.736
0.076,8.828
0.08,8.88
0.084,8.908
0.088,8.912
0.092,9
0.096,9.044
0.1,9.024
0.104,9.044
0.108,9.056
0.112,9.052
0.116,8.992
0.12,8.92
0.124,8.86
0.128,8.78
0.132,8.692
0.136,8.56
0.14,8.472
0.144,8.436
0.148,8.332
0.152,8.244
0.156,8.172
0.16,8.164
0.164,8.124
0.168,8.076
0.172,8.036
0.176,8.016
0.18,8.024
0.184,7.976
0.188,7.936
0.192,7.972
0.196,7.984
0.2,7.928
0.204,7.912
0.208,7.924
0.212,7.952
0.216,7.908
0.22,7.924
0.224,7.932
0.228,7.944
0.232,7.94
0.236,7.916
0.24,7.916
0.244,7.968
0.248,7.94
0.252,7.94
0.256,7.92
0.26,7.936
0.264,7.956
0.268,7.924
0.272,7.936
0.276,7.928
0.28,7.968
0.284,7.932
0.288,7.944
0.292,7.944
0.296,7.972
0.3,7.936
0.304,7.912
0.308,7.948
0.312,7.956
0.316,7.94
0.32,7.924
0.324,7.92
0.328,7.956
0.332,7.94
0.336,7.928
0.34,7.924
0.344,7.92
0.348,7.928
0.352,7.904
0.356,7.908
0.36,7.948
0.364,7.964
0.368,7.924
0.372,7.868
0.376,7.892
0.38,7.912
0.384,7.9
0.388,7.896
0.392,7.936
0.396,7.948
0.4,7.888
0.404,7.872
0.408,7.908
0.412,7.94
0.416,7.92
0.42,7.872
0.424,7.912
0.428,7.932
0.432,7.884
0.436,7.876
0.44,7.872
0.444,7.904
0.448,7.892
0.452,7.892
0.456,7.86
0.46,7.876
0.464,7.896
0.468,7.872
0.472,7.844
0.476,7.872
0.48,7.884
0.484,7.888
0.488,7.868
0.492,7.9
0.496,7.936
0.5,7.848
0.504,7.864
0.508,7.928
0.512,7.936
0.516,7.916
0.52,7.904
0.524,7.972
0.528,8.052
0.532,8.068
0.536,7.972
0.54,7.964
0.544,8.024
0.548,8.048
0.552,8.04
0.556,8.088
0.56,8.132
0.564,8.14
0.568,8.1
0.572,8.144
0.576,8.172
0.58,8.14
0.584,8.044
0.588,8.036
0.592,8.072
0.596,8.08
0.6,8
0.604,7.936
0.608,7.948
0.612,7.924
0.616,7.876
0.62,7.872
0.624,7.888
0.628,7.9
0.632,7.852
0.636,7.848
0.64,7.824
0.644,7.872
0.648,7.86
0.652,7.8
0.656,7.816
0.66,7.888
0.664,7.864
0.668,7.804
0.672,7.816
0.676,7.852
0.68,7.904
0.684,7.856
0.688,7.732
0.692,7.82
0.696,7.924
0.7,7.856
0.704,7.804
0.708,7.892
0.712,7.924
0.716,7.876
0.72,7.844
0.724,7.824
0.728,7.828
0.732,7.956
0.736,8.316
0.74,8.776
0.744,9.368
0.748,10.072
0.752,10.776
0.756,10.252
0.76,9.46
0.764,8.964
0.768,8.508
0.772,7.98
0.776,7.7
0.78,7.532
0.784,7.572
0.788,7.764
0.792,7.864
0.796,7.996
0.8,8.036
0.804,8.032
0.808,7.992
0.812,7.952
0.816,7.808
0.82,7.904
0.824,7.968
0.828,7.964
0.832,7.948
0.836,7.928
0.84,7.944
0.844,7.96
0.848,7.912
0.852,7.932
0.856,7.956
0.86,8
0.864,8.076
0.868,8.048
0.872,8
0.876,8.06
0.88,8.168
0.884,8.168
0.888,8.056
0.892,8.096
0.896,8.068
0.9,8.116
0.904,8.092
0.908,8.128
0.912,8.148
0.916,8.168
0.92,8.168
0.924,8.184
0.928,8.232
0.932,8.252
0.936,8.248
0.94,8.284
0.944,8.356
0.948,8.368
0.952,8.388
0.956,8.412
0.96,8.468
0.964,8.576
0.968,8.552
0.972,8.608
0.976,8.728
0.98,8.76
0.984,8.788
0.988,8.828
0.992,8.864
0.996,8.94
1,8.944
1.004,8.968
1.008,9.056
1.012,9.056
1.016,9.064
1.02,8.992
1.024,8.968
1.028,8.948
1.032,8.832
1.036,8.728
1.04,8.66
1.044,8.644
1.048,8.548
1.052,8.376
1.056,8.304
1.06,8.296
1.064,8.272
1.068,8.148
1.072,8.112
1.076,8.048
1.08,8.052
1.084,8.02
1.088,7.988
1.092,7.972
1.096,7.936
1.1,7.908
1.104,7.888
1.108,7.928
1.112,7.92
1.116,7.888
1.12,7.884
1.124,7.92
1.128,7.94
1.132,7.852
1.136,7.848
1.14,7.836
1.144,7.94
1.148,7.952
1.152,7.876
1.156,7.856
1.16,7.908
1.164,7.964
1.168,7.9
1.172,7.852
1.176,7.94
1.18,7.964
1.184,7.896
1.188,7.852
1.192,7.864
1.196,7.932
1.2,7.92
1.204,7.908
1.208,7.892
1.212,7.908
1.216,7.86
1.22,7.856
1.224,7.952
1.228,7.964
1.232,7.928
1.236,7.8
1.24,7.852
1.244,7.884
1.248,7.884
1.252,7.84
1.256,7.844
1.26,7.924
1.264,7.956
1.268,7.952
1.272,7.876
1.276,7.832
1.28,7.916
1.284,7.848
1.288,7.768
1.292,7.908
1.296,7.96
1.3,7.896
1.304,7.776
1.308,7.864
1.312,7.924
1.316,7.86
1.32,7.872
1.324,7.904
1.328,7.896
1.332,7.812
1.336,7.8
1.34,7.828
1.344,7.888
1.348,7.952
1.352,7.916
1.356,7.908
1.36,7.916
1.364,7.908
1.368,7.828
1.372,7.736
1.376,7.916
1.38,7.932
1.384,7.784
1.388,7.732
1.392,7.88
1.396,7.88
1.4,7.896
1.404,7.848
1.408,7.844
1.412,7.888
1.416,7.852
1.42,7.848
1.424,7.908
1.428,7.932
1.432,7.94
1.436,8.04
1.44,7.96
1.444,8
1.448,7.968
1.452,8.052
1.456,8.192
1.46,8.136
1.464,8.176
1.468,8.06
1.472,8.048
1.476,8.048
1.48,8.128
1.484,8.168
1.488,8.092
1.492,8.048
1.496,8.02
1.5,8.052
1.504,8.056
1.508,7.936
1.512,7.856
1.516,7.936
1.52,7.888
1.524,7.852
1.528,7.904
1.532,7.98
1.536,7.784
1.54,7.816
1.544,7.872
1.548,7.856
1.552,7.796
1.556,7.8
1.56,7.908
1.564,7.876
1.568,7.848
1.572,7.84
1.576,7.912
1.58,7.992
1.584,7.868
1.588,7.744
1.592,7.8
1.596,7.904
1.6,7.908
1.604,7.816
1.608,7.824
1.612,7.884
1.616,7.888
1.62,7.756
1.624,7.648
1.628,7.82
1.632,8.1
1.636,8.456
1.64,9.112
1.644,9.84
1.648,10.588
1.652,10.764
1.656,9.864
1.66,9.34
1.664,8.832
1.668,8.188
1.672,7.856
1.676,7.684
1.68,7.508
1.684,7.472
1.688,7.76
1.692,7.964
1.696,8.06
1.7,8.084
1.704,8.012
1.708,8.032
1.712,8.024
1.716,7.904
1.72,8.008
1.724,7.996
1.728,8.036
1.732,8.028
1.736,7.96
1.74,8.004
1.744,8.08
1.748,8.008
1.752,8.02
1.756,8.02
1.76,8.056
1.764,8.156
1.768,8.116
1.772,8.064
1.776,8.1
1.78,8.092
1.784,8.072
1.788,8.084
1.792,8.168
1.796,8.14
1.8,8.184
1.804,8.12
1.808,8.084
1.812,8.16
1.816,8.236
1.82,8.164
1.824,8.204
1.828,8.208
1.832,8.224
1.836,8.328
1.84,8.452
1.844,8.472
1.848,8.336
1.852,8.348
1.856,8.536
1.86,8.62
1.864,8.652
1.868,8.56
1.872,8.624
1.876,8.772
1.88,8.892
1.884,8.848
1.888,8.864
1.892,8.956
1.896,9.048
1.9,9.004
1.904,9.072
1.908,9.172
1.912,9.032
1.916,8.944
1.92,8.952
1.924,8.992
1.928,8.952
1.932,8.796
1.936,8.724
1.94,8.596
1.944,8.552
1.948,8.5
1.952,8.428
1.956,8.392
1.96,8.332
1.964,8.324
1.968,8.116
1.972,7.976
1.976,7.98
1.98,7.936
1.984,7.948
1.988,7.88
1.992,7.984
1.996,8.008
2,7.964
2.004,7.904
2.008,7.92
2.012,8.036
2.016,8.036
2.02,7.904
2.024,7.824
2.028,7.88
2.032,7.904
2.036,8.032
2.04,8.052
2.044,7.864
2.048,7.836
2.052,7.736
2.056,7.872
2.06,8.016
2.064,7.98
2.068,7.804
2.072,7.836
2.076,7.852
2.08,7.904
2.084,7.904
2.088,7.848
2.092,7.92
2.096,7.868
2.1,7.8
2.104,7.86
2.108,8.028
2.112,8.064
2.116,7.816
2.12,7.708
2.124,7.744
2.128,7.856
2.132,7.844
2.136,7.844
2.14,7.88
2.144,7.876
2.148,7.832
2.152,7.832
2.156,7.864
2.16,7.884
2.164,7.948
2.168,7.808
2.172,7.904
2.176,7.932
2.18,7.9
2.184,7.828
2.188,7.82
2.192,7.952
2.196,7.976
2.2,7.776
2.204,7.656
2.208,7.732
2.212,7.84
2.216,7.82
2.22,7.812
2.224,7.852
2.228,7.864
2.232,7.772
2.236,7.748
2.24,7.864
2.244,7.868
2.248,7.792
2.252,7.712
2.256,7.872
2.26,7.824
2.264,7.756
2.268,7.708
2.272,7.776
2.276,7.82
2.28,7.852
2.284,7.876
2.288,7.928
2.292,7.812
2.296,7.844
2.3,7.872
2.304,7.912
2.308,7.968
2.312,7.78
2.316,7.86
2.32,7.996
2.324,7.988
2.328,7.988
2.332,7.988
2.336,7.992
2.34,7.988
2.344,8.108
2.348,8.032
2.352,7.98
2.356,7.952
2.36,8.004
2.364,7.92
2.368,7.948
2.372,7.86
2.376,7.972
2.38,8.2
2.384,8.26
2.388,8.02
2.392,7.932
2.396,7.956
2.4,7.772
2.404,7.72
2.408,7.864
2.412,7.884
2.416,7.632
2.42,7.592
2.424,7.696
2.428,7.752
2.432,7.788
2.436,7.76
2.44,7.792
2.444,7.796
2.448,7.748
2.452,7.74
2.456,7.808
2.46,7.868
2.464,7.796
2.468,7.816
2.472,7.888
2.476,7.788
2.48,7.612
2.484,7.552
2.488,7.628
2.492,7.656
2.496,7.84
2.5,8.24
2.504,8.736
2.508,9.484
2.512,10.252
2.516,10.896
2.52,10.1
2.524,9.212
2.528,8.708
2.532,8.332
2.536,7.984
2.54,7.688
2.544,7.588
2.548,7.48
2.552,7.588
2.556,7.684
2.56,7.732
2.564,7.86
2.568,7.916
2.572,7.824
2.576,7.84
2.58,7.8
2.584,7.816
2.588,7.86
2.592,7.86
2.596,7.872
2.6,7.828
2.604,7.84
2.608,7.92
2.612,7.964
2.616,7.956
2.62,7.868
2.624,7.896
2.628,8.048
2.632,7.952
2.636,7.892
2.64,7.852
2.644,8.056
2.648,8.012
2.652,7.996
2.656,8
2.66,7.876
2.664,7.928
2.668,7.872
2.672,7.96
2.676,8.06
2.68,8.092
2.684,8.076
2.688,8.084
2.692,8.136
2.696,8.164
2.7,8.248
2.704,8.176
2.708,8.212
2.712,8.348
2.716,8.348
2.72,8.36
2.724,8.416
2.728,8.532
2.732,8.652
2.736,8.528
2.74,8.52
2.744,8.58
2.748,8.688
2.752,8.648
2.756,8.832
2.76,8.888
2.764,8.98
2.768,9.036
2.772,8.96
2.776,8.984
2.78,8.92
2.784,8.92
2.788,9
2.792,8.916
2.796,8.712
2.8,8.596
2.804,8.524
2.808,8.484
2.812,8.42
2.816,8.288
2.82,8.112
2.824,8.116
2.828,8.08
2.832,8.084
2.836,8.012
2.84,7.96
2.844,7.876
2.848,7.92
2.852,7.88
2.856,7.868
2.86,7.94
2.864,7.848
2.868,7.712
2.872,7.652
2.876,7.744
2.88,7.844
2.884,7.864
2.888,7.844
2.892,7.772
2.896,7.804
2.9,7.776
2.904,7.744
2.908,7.824
2.912,7.836
2.916,7.804
2.92,7.828
2.924,7.888
2.928,7.912
2.932,7.88
2.936,7.768
2.94,7.788
2.944,7.9
2.948,7.84
2.952,7.692
2.956,7.652
2.96,7.744
2.964,7.724
2.968,7.816
2.972,7.78
2.976,7.828
2.98,7.836
2.984,7.796
2.988,7.748
2.992,7.82
2.996,7.824
3,7.788
3.004,7.82
3.008,7.884
3.012,7.892
3.016,7.94
3.02,7.852
3.024,7.652
3.028,7.66
3.032,7.696
3.036,7.692
3.04,7.784
3.044,7.796
3.048,7.74
3.052,7.696
3.056,7.668
3.06,7.788
3.064,7.868
3.068,7.768
3.072,7.66
3.076,7.688
3.08,7.748
3.084,7.704
3.088,7.772
3.092,7.824
3.096,7.768
3.1,7.748
3.104,7.744
3.108,7.82
3.112,7.852
3.116,7.9
3.12,7.8
3.124,7.736
3.128,7.808
3.132,7.852
3.136,7.892
3.14,7.848
3.144,7.928
3.148,8.032
3.152,7.936
3.156,8.004
3.16,7.932
3.164,7.944
3.168,7.968
3.172,7.924
3.176,7.972
3.18,7.948
3.184,7.824
3.188,7.732
3.192,7.796
3.196,7.848
3.2,7.76
3.204,7.78
3.208,7.68
3.212,7.668
3.216,7.676
3.22,7.74
3.224,7.636
3.228,7.644
3.232,7.556
3.236,7.576
3.24,7.656
3.244,7.724
3.248,7.72
3.252,7.644
3.256,7.68
3.26,7.696
3.264,7.648
3.268,7.62
3.272,7.704
3.276,7.712
3.28,7.82
3.284,7.724
3.288,7.672
3.292,7.656
3.296,7.72
3.3,7.604
3.304,7.536
3.308,7.632
3.312,7.708
3.316,7.996
3.32,8.472
3.324,9.224
3.328,9.984
3.332,10.764
3.336,10.688
3.34,9.396
3.344,8.636
3.348,8.3
3.352,8.072
3.356,7.808
3.36,7.476
3.364,7.3
3.368,7.452
3.372,7.672
3.376,7.812
3.38,7.74
3.384,7.788
3.388,7.784
3.392,7.8
3.396,7.836
3.4,7.84
3.404,7.812
3.408,7.836
3.412,7.876
3.416,7.892
3.42,7.88
3.424,7.948
3.428,7.952
3.432,7.936
3.436,7.816
3.44,7.852
3.444,7.912
3.448,8.008
3.452,7.96
3.456,7.872
3.46,7.94
3.464,7.956
3.468,7.888
3.472,7.9
3.476,7.948
3.48,8.028
3.484,8.012
3.488,8.02
3.492,8.036
3.496,8.064
3.5,8.076
3.504,8.112
3.508,8.176
3.512,8.244
3.516,8.184
3.52,8.168
3.524,8.26
3.528,8.292
3.532,8.316
3.536,8.292
3.54,8.388
3.544,8.488
3.548,8.512
3.552,8.552
3.556,8.652
3.56,8.776
3.564,8.832
3.568,8.78
3.572,8.816
3.576,8.888
3.58,8.916
3.584,8.956
3.588,9.088
3.592,9.156
3.596,9.032
3.6,8.84
3.604,8.872
3.608,8.86
3.612,8.844
3.616,8.664
3.62,8.532
3.624,8.464
3.628,8.372
3.632,8.268
3.636,8.22
3.64,8.188
3.644,8.16
3.648,8.044
3.652,8
3.656,7.916
3.66,7.9
3.664,7.956
3.668,7.952
3.672,7.864
3.676,7.836
3.68,7.8
3.684,7.772
3.688,7.764
3.692,7.828
3.696,7.848
3.7,7.804
3.704,7.76
3.708,7.824
3.712,7.82
3.716,7.78
3.72,7.772
3.724,7.84
3.728,7.856
3.732,7.896
3.736,7.876
3.74,7.704
3.744,7.736
3.748,7.8
3.752,7.784
3.756,7.848
3.76,7.896
3.764,7.848
3.768,7.708
3.772,7.756
3.776,7.848
3.78,7.904
3.784,7.868
3.788,7.76
3.792,7.704
3.796,7.824
3.8,7.836
3.804,7.756
3.808,7.756
3.812,7.82
3.816,7.844
3.82,7.852
3.824,7.8
3.828,7.832
3.832,7.888
3.836,7.832
3.84,7.828
3.844,7.848
3.848,7.832
3.852,7.748
3.856,7.788
3.86,7.78
3.864,7.804
3.868,7.672
3.872,7.732
3.876,7.8
3.88,7.8
3.884,7.828
3.888,7.852
3.892,7.828
3.896,7.828
3.9,7.744
3.904,7.776
3.908,7.844
3.912,7.88
3.916,7.892
3.92,7.8
3.924,7.756
3.928,7.848
3.932,7.836
3.936,7.86
3.94,7.916
3.944,7.876
3.948,7.94
3.952,8.012
3.956,8.036
3.96,8.028
3.964,8.036
3.968,8.02
3.972,8.052
3.976,8.068
3.98,8.016
3.984,7.94
3.988,7.996
3.992,8.096
3.996,8.016
4,7.988
4.004,7.956
4.008,7.776
4.012,7.716
4.016,7.744
4.02,7.716
4.024,7.748
4.028,7.8
4.032,7.752
4.036,7.664
4.04,7.68
4.044,7.72
4.048,7.8
4.052,7.748
4.056,7.732
4.06,7.756
4.064,7.768
4.068,7.74
4.072,7.808
4.076,7.756
4.08,7.76
4.084,7.692
4.088,7.708
4.092,7.756
4.096,7.808
4.1,7.852
4.104,7.776
4.108,7.72
4.112,7.724
4.116,7.652
4.12,7.648
4.124,7.796
4.128,7.9
4.132,8.14
4.136,8.572
4.14,9.32
4.144,10.188
4.148,10.936
4.152,10.632
4.156,9.508
4.16,8.868
4.164,8.4
4.168,7.96
4.172,7.604
4.176,7.432
4.18,7.436
4.184,7.536
4.188,7.64
4.192,7.816
4.196,7.972
4.2,7.908
4.204,7.892
4.208,7.916
4.212,7.892
4.216,7.864
4.22,7.944
4.224,8
4.228,7.98
4.232,7.876
4.236,7.9
4.24,7.904
4.244,7.94
4.248,7.94
4.252,7.936
4.256,7.984
4.26,8.028
4.264,8.02
4.268,7.904
4.272,7.916
4.276,8.032
4.28,8.108
4.284,8.04
4.288,7.992
4.292,7.976
4.296,8.076
4.3,8.008
4.304,8.1
4.308,8.152
4.312,8.16
4.316,8.136
4.32,8.18
4.324,8.28
4.328,8.276
4.332,8.168
4.336,8.272
4.34,8.384
4.344,8.408
4.348,8.456
4.352,8.444
4.356,8.42
4.36,8.476
4.364,8.524
4.368,8.592
4.372,8.692
4.376,8.776
4.38,8.832
4.384,8.876
4.388,8.98
4.392,9.028
4.396,9.044
4.4,9.144
4.404,9.092
4.408,9.148
4.412,9.14
4.416,9.076
4.42,9.004
4.424,8.936
4.428,8.888
4.432,8.74
4.436,8.704
4.44,8.688
4.444,8.552
4.448,8.352
4.452,8.192
4.456,8.168
4.46,8.192
4.464,8.172
4.468,8.072
4.472,8.036
4.476,7.964
4.48,7.964
4.484,7.876
4.488,7.868
4.492,7.884
4.496,7.876
4.5,7.872
4.504,7.86
4.508,7.872
4.512,7.924
4.516,7.848
4.52,7.852
4.524,7.892
4.528,7.896
4.532,7.86
4.536,7.908
4.54,7.924
4.544,8.012
4.548,7.872
4.552,7.696
4.556,7.792
4.56,7.868
4.564,7.828
4.568,7.816
4.572,7.828
4.576,7.852
4.58,7.908
4.584,7.852
4.588,7.868
4.592,7.864
4.596,7.932
4.6,7.908
4.604,7.808
4.608,7.82
4.612,7.9
4.616,7.868
4.62,7.908
4.624,7.9
4.628,7.872
4.632,7.812
4.636,7.776
4.64,7.824
4.644,7.92
4.648,7.844
4.652,7.82
4.656,7.852
4.66,7.856
4.664,7.82
4.668,7.84
4.672,7.824
4.676,7.876
4.68,7.864
4.684,7.792
4.688,7.836
4.692,7.8
4.696,7.884
4.7,7.828
4.704,7.844
4.708,7.868
4.712,7.864
4.716,7.76
4.72,7.764
4.724,7.824
4.728,7.852
4.732,7.804
4.736,7.784
4.74,7.764
4.744,7.772
4.748,7.86
4.752,7.76
4.756,7.788
4.76,7.88
4.764,7.884
4.768,7.932
4.772,8.016
4.776,7.9
4.78,7.936
4.784,7.956
4.788,7.992
4.792,8.072
4.796,8.128
4.8,8.048
4.804,8.012
4.808,8.056
4.812,8.02
4.816,8.024
4.82,8.028
4.824,8.012
4.828,8.044
4.832,7.928
4.836,7.9
4.84,7.856
4.844,7.804
4.848,7.756
4.852,7.744
4.856,7.832
4.86,7.84
4.864,7.82
4.868,7.752
4.872,7.8
4.876,7.864
4.88,7.792
4.884,7.744
4.888,7.728
4.892,7.72
4.896,7.764
4.9,7.72
4.904,7.708
4.908,7.74
4.912,7.792
4.916,7.736
4.92,7.648
4.924,7.72
4.928,7.824
4.932,7.808
4.936,7.776
4.94,7.792
4.944,7.732
4.948,7.792
4.952,7.74
4.956,7.792
4.96,7.728
4.964,7.64
4.968,7.748
4.972,8.176
4.976,8.668
4.98,9.292
4.984,9.976
4.988,10.872
4.992,10.868
4.996,9.536
5,8.792
5.004,8.372
5.008,8.028
5.012,7.756
5.016,7.488
5.02,7.4
5.024,7.552
5.028,7.764
5.032,7.776
5.036,7.8
5.04,7.976
5.044,8.048
5.048,7.972
5.052,7.864
5.056,7.776
5.06,7.856
5.064,7.86
5.068,7.896
5.072,7.948
5.076,7.984
5.08,7.932
5.084,7.908
5.088,7.86
5.092,7.936
5.096,8.028
5.1,7.984
5.104,7.884
5.108,7.932
5.112,8.028
5.116,8.04
5.12,7.94
5.124,8
5.128,8.032
5.132,7.988
5.136,8.016
5.14,8.044
5.144,8.136
5.148,8.224
5.152,8.128
5.156,8.052
5.16,8.172
5.164,8.196
5.168,8.184
5.172,8.132
5.176,8.288
5.18,8.324
5.184,8.312
5.188,8.316
5.192,8.464
5.196,8.496
5.2,8.416
5.204,8.556
5.208,8.676
5.212,8.772
5.216,8.804
5.22,8.76
5.224,8.828
5.228,8.908
5.232,8.9
5.236,8.968
5.24,8.98
5.244,9.108
5.248,9.084
5.252,9.036
5.256,9
5.26,9
5.264,8.936
5.268,8.804
5.272,8.736
5.276,8.688
5.28,8.592
5.284,8.452
5.288,8.348
5.292,8.328
5.296,8.26
5.3,8.096
5.304,8.08
5.308,8.052
5.312,7.96
5.316,7.98
5.32,7.912
5.324,7.9
5.328,7.816
5.332,7.836
5.336,7.812
5.34,7.784
5.344,7.828
5.348,7.804
5.352,7.84
5.356,7.848
5.36,7.816
5.364,7.848
5.368,7.812
5.372,7.86
5.376,7.912
5.38,7.832
5.384,7.76
5.388,7.856
5.392,7.964
5.396,7.944
5.4,7.736
5.404,7.672
5.408,7.7
5.412,7.812
5.416,7.82
5.42,7.832
5.424,7.928
5.428,7.88
5.432,7.76
5.436,7.748
5.44,7.808
5.444,7.792
5.448,7.78
5.452,7.816
5.456,7.88
5.46,7.888
5.464,7.892
5.468,7.888
5.472,7.928
5.476,8
5.48,7.868
5.484,7.624
5.488,7.652
5.492,7.796
5.496,7.932
5.5,7.84
5.504,7.736
5.508,7.76
5.512,7.788
5.516,7.732
5.52,7.768
5.524,7.852
5.528,7.856
5.532,7.756
5.536,7.696
5.54,7.816
5.544,7.908
5.548,7.776
5.552,7.696
5.556,7.796
5.56,7.856
5.564,7.884
5.568,7.788
5.572,7.736
5.576,7.772
5.58,7.764
5.584,7.736
5.588,7.784
5.592,7.768
5.596,7.832
5.6,7.78
5.604,7.744
5.608,7.864
5.612,7.864
5.616,7.76
5.62,7.788
5.624,7.868
5.628,7.92
5.632,7.916
5.636,7.9
5.64,7.996
5.644,8.104
5.648,8.16
5.652,8.068
5.656,8.016
5.66,7.976
5.664,7.968
5.668,7.924
5.672,7.964
5.676,8.032
5.68,7.88
5.684,7.816
5.688,7.844
5.692,7.852
5.696,7.812
5.7,7.784
5.704,7.716
5.708,7.66
5.712,7.696
5.716,7.76
5.72,7.72
5.724,7.816
5.728,7.816
5.732,7.684
5.736,7.6
5.74,7.672
5.744,7.768
5.748,7.792
5.752,7.772
5.756,7.74
5.76,7.684
5.764,7.664
5.768,7.66
5.772,7.74
5.776,7.792
5.78,7.776
5.784,7.656
5.788,7.712
5.792,7.72
5.796,7.796
5.8,7.748
5.804,7.828
5.808,7.72
5.812,7.668
5.816,7.588
5.82,7.74
5.824,8.144
5.828,8.64
5.832,9.236
5.836,10.028
5.84,11.032
5.844,11.02
5.848,9.776
5.852,8.792
5.856,8.248
5.86,8
5.864,7.78
5.868,7.5
5.872,7.444
5.876,7.52
5.88,7.628
5.884,7.772
5.888,7.84
5.892,7.904
5.896,7.912
5.9,7.872
5.904,7.96
5.908,8.008
5.912,7.908
5.916,7.912
5.92,7.916
5.924,7.936
5.928,7.992
5.932,7.94
5.936,7.856
5.94,7.884
5.944,7.916
5.948,7.936
5.952,7.924
5.956,7.956
5.96,8.008
5.964,7.928
5.968,7.948
5.972,7.972
5.976,8
5.98,8.008
5.984,7.956
5.988,7.976
5.992,8.112
5.996,8.144
6,8.136
6.004,8.024
6.008,8.164
6.012,8.292
6.016,8.16
6.02,8.16
6.024,8.24
6.028,8.304
6.032,8.316
6.036,8.316
6.04,8.276
6.044,8.372
6.048,8.452
6.052,8.484
6.056,8.54
6.06,8.628
6.064,8.736
6.068,8.736
6.072,8.816
6.076,8.916
6.08,9.088
6.084,9.096
6.088,9.064
6.092,9.136
6.096,9.108
6.1,9.056
6.104,9.044
6.108,9.052
6.112,8.988
6.116,8.896
6.12,8.82
6.124,8.788
6.128,8.608
6.132,8.488
6.136,8.452
6.14,8.292
6.144,8.26
6.148,8.18
6.152,8.14
6.156,8.096
6.16,8.132
6.164,8.024
6.168,7.824
6.172,7.828
6.176,7.964
6.18,7.9
6.184,7.844
6.188,7.88
6.192,7.796
6.196,7.764
6.2,7.768
6.204,7.796
6.208,7.804
6.212,7.868
6.216,7.772
6.22,7.728
6.224,7.828
6.228,7.92
6.232,7.76
6.236,7.82
6.24,7.888
6.244,7.808
6.248,7.776
6.252,7.824
6.256,7.884
6.26,7.956
6.264,7.832
6.268,7.788
6.272,7.78
6.276,7.744
6.28,7.816
6.284,7.852
6.288,7.736
6.292,7.756
6.296,7.796
6.3,7.808
6.304,7.824
6.308,7.9
6.312,7.92
6.316,7.84
6.32,7.732
6.324,7.848
6.328,7.828
6.332,7.796
6.336,7.768
6.34,7.876
6.344,7.972
6.348,7.936
6.352,7.796
6.356,7.728
6.36,7.704
6.364,7.708
6.368,7.804
6.372,7.84
6.376,7.872
6.38,7.74
6.384,7.7
6.388,7.732
6.392,7.812
6.396,7.792
6.4,7.74
6.404,7.756
6.408,7.768
6.412,7.812
6.416,7.784
6.42,7.76
6.424,7.772
6.428,7.86
6.432,7.884
6.436,7.84
6.44,7.724
6.444,7.784
6.448,7.816
6.452,7.756
6.456,7.744
6.46,7.736
6.464,7.784
6.468,7.668
6.472,7.692
6.476,7.752
6.48,7.772
6.484,7.792
6.488,7.796
6.492,7.872
6.496,7.9
6.5,7.844
6.504,7.86
6.508,7.876
6.512,7.976
6.516,7.992
6.52,7.92
6.524,7.972
6.528,8.048
6.532,7.996
6.536,7.924
6.54,7.916
6.544,7.996
6.548,7.948
6.552,7.944
6.556,7.92
6.56,7.932
6.564,7.916
6.568,7.952
6.572,7.896
6.576,7.856
6.58,7.908
6.584,7.804
6.588,7.812
6.592,7.792
6.596,7.852
6.6,7.74
6.604,7.668
6.608,7.664
6.612,7.696
6.616,7.744
6.62,7.696
6.624,7.72
6.628,7.764
6.632,7.744
6.636,7.688
6.64,7.72
6.644,7.76
6.648,7.796
6.652,7.8
6.656,7.776
6.66,7.796
6.664,7.8
6.668,7.756
6.672,7.772
6.676,7.764
6.68,7.804
6.684,7.792
6.688,7.74
6.692,7.74
6.696,7.76
6.7,7.708
6.704,7.736
6.708,7.688
6.712,7.824
6.716,8.244
6.72,8.804
6.724,9.564
6.728,10.428
6.732,11.204
6.736,10.724
6.74,9.508
6.744,8.856
6.748,8.456
6.752,7.992
6.756,7.636
6.76,7.428
6.764,7.496
6.768,7.68
6.772,7.748
6.776,7.78
6.78,7.88
6.784,7.896
6.788,7.908
6.792,7.964
6.796,7.944
6.8,7.908
6.804,7.88
6.808,7.916
6.812,7.936
6.816,7.94
6.82,8.02
6.824,8.056
6.828,8.024
6.832,7.936
6.836,7.904
6.84,7.888
6.844,7.98
6.848,8.016
6.852,8.028
6.856,8.052
6.86,8.048
6.864,8.008
6.868,7.948
6.872,8.024
6.876,8.08
6.88,8.052
6.884,8.068
6.888,8.072
6.892,8.12
6.896,8.208
6.9,8.2
6.904,8.084
6.908,8.1
6.912,8.236
6.916,8.292
6.92,8.272
6.924,8.452
6.928,8.42
6.932,8.38
6.936,8.468
6.94,8.552
6.944,8.612
6.948,8.592
6.952,8.616
6.956,8.688
6.96,8.752
6.964,8.844
6.968,8.876
6.972,8.924
6.976,9.084
6.98,9.092
6.984,9.104
6.988,9.12
6.992,9.18
6.996,9.2
7,9.064
7.004,8.964
7.008,9.012
7.012,8.984
7.016,8.836
7.02,8.7
7.024,8.512
7.028,8.452
7.032,8.324
7.036,8.232
7.04,8.164
7.044,8.204
7.048,8.112
7.052,7.98
7.056,7.936
7.06,7.988
7.064,7.936
7.068,7.908
7.072,7.88
7.076,7.864
7.08,7.928
7.084,7.868
7.088,7.868
7.092,7.9
7.096,7.812
7.1,7.732
7.104,7.756
7.108,7.844
7.112,7.832
7.116,7.804
7.12,7.86
7.124,7.756
7.128,7.86
7.132,7.804
7.136,7.78
7.14,7.904
7.144,7.96
7.148,7.828
7.152,7.84
7.156,7.78
7.16,7.8
7.164,7.852
7.168,7.856
7.172,7.78
7.176,7.836
7.18,7.884
7.184,7.82
7.188,7.836
7.192,7.868
7.196,7.872
7.2,7.784
7.204,7.772
7.208,7.816
7.212,7.8
7.216,7.788
7.22,7.828
7.224,7.892
7.228,7.916
7.232,7.856
7.236,7.844
7.24,7.816
7.244,7.76
7.248,7.784
7.252,7.796
7.256,7.892
7.26,7.92
7.264,7.788
7.268,7.8
7.272,7.724
7.276,7.768
7.28,7.812
7.284,7.76
7.288,7.784
7.292,7.816
7.296,7.804
7.3,7.772
7.304,7.796
7.308,7.876
7.312,7.872
7.316,7.784
7.32,7.788
7.324,7.776
7.328,7.796
7.332,7.764
7.336,7.796
7.34,7.852
7.344,7.808
7.348,7.764
7.352,7.776
7.356,7.78
7.36,7.816
7.364,7.816
7.368,7.684
7.372,7.688
7.376,7.736
7.38,7.824
7.384,7.76
7.388,7.748
7.392,7.812
7.396,7.848
7.4,7.728
7.404,7.76
7.408,7.82
7.412,7.852
7.416,7.824
7.42,7.7
7.424,7.72
7.428,7.78
7.432,7.868
7.436,7.808
7.44,7.788
7.444,7.764
7.448,7.732
7.452,7.716
7.456,7.76
7.46,7.836
7.464,7.836
7.468,7.7
7.472,7.74
7.476,7.844
7.48,7.824
7.484,7.8
7.488,7.764
7.492,7.848
7.496,7.94
7.5,7.888
7.504,7.848
7.508,7.968
7.512,8.016
7.516,7.968
7.52,7.928
7.524,8.004
7.528,8.064
7.532,8.008
7.536,7.98
7.54,7.98
7.544,7.972
7.548,7.948
7.552,7.924
7.556,7.952
7.56,7.984
7.564,7.984
7.568,7.936
7.572,7.92
7.576,7.9
7.58,7.852
7.584,7.816
7.588,7.788
7.592,7.804
7.596,7.804
7.6,7.744
7.604,7.736
7.608,7.772
7.612,7.82
7.616,7.752
7.62,7.736
7.624,7.784
7.628,7.792
7.632,7.788
7.636,7.772
7.64,7.804
7.644,7.808
7.648,7.784
7.652,7.748
7.656,7.8
7.66,7.92
7.664,7.836
7.668,7.736
7.672,7.688
7.676,7.812
7.68,7.88
7.684,7.788
7.688,7.708
7.692,7.756
7.696,7.704
7.7,7.688
7.704,7.9
7.708,8.304
7.712,8.76
7.716,9.468
7.72,10.232
7.724,11.092
7.728,10.848
7.732,9.7
7.736,8.988
7.74,8.552
7.744,8.136
7.748,7.648
7.752,7.38
7.756,7.444
7.76,7.636
7.764,7.824
7.768,7.896
7.772,7.968
7.776,7.996
7.78,7.98
7.784,7.9
7.788,7.872
7.792,7.952
7.796,7.996
7.8,8.048
7.804,7.976
7.808,7.916
7.812,8.032
7.816,7.932
7.82,7.952
7.824,8.064
7.828,8.128
7.832,8.052
7.836,7.944
7.84,7.976
7.844,8.02
7.848,8.068
7.852,8.028
7.856,8.028
7.86,8.052
7.864,8.092
7.868,8.024
7.872,8.112
7.876,8.184
7.88,8.072
7.884,8.112
7.888,8.124
7.892,8.16
7.896,8.32
7.9,8.356
7.904,8.224
7.908,8.168
7.912,8.244
7.916,8.324
7.92,8.36
7.924,8.472
7.928,8.436
7.932,8.464
7.936,8.52
7.94,8.576
7.944,8.652
7.948,8.728
7.952,8.808
7.956,8.824
7.96,8.972
7.964,8.96
7.968,8.956
7.972,9.012
7.976,9.092
7.98,9.152
7.984,9.2
7.988,9.24
7.992,9.056
7.996,9.14
8,9.084
8.004,8.98
8.008,8.936
8.012,8.888
8.016,8.752
8.02,8.576
8.024,8.5
8.028,8.452
8.032,8.348
8.036,8.276
8.04,8.24
8.044,8.192
8.048,8.108
8.052,8.028
8.056,8.02
8.06,8.008
8.064,8.004
8.068,8.032
8.072,8.02
8.076,7.956
8.08,7.924
8.084,7.84
8.088,7.928
8.092,7.896
8.096,7.916
8.1,7.908
8.104,7.932
8.108,7.924
8.112,7.96
8.116,7.896
8.12,7.928
8.124,8.004
8.128,7.956
8.132,7.872
8.136,7.944
8.14,8.044
8.144,7.964
8.148,7.86
8.152,7.828
8.156,7.856
8.16,7.916
8.164,7.932
8.168,7.864
8.172,7.896
8.176,7.912
8.18,7.944
8.184,7.884
8.188,7.88
8.192,8.02
8.196,7.992
8.2,7.964
8.204,7.952
8.208,7.868
8.212,7.928
8.216,7.956
8.22,7.968
8.224,7.996
8.228,7.936
8.232,7.864
8.236,7.8
8.24,7.82
8.244,7.908
8.248,7.892
8.252,7.888
8.256,7.892
8.26,7.928
8.264,7.908
8.268,7.904
8.272,7.932
8.276,7.896
8.28,7.872
8.284,7.896
8.288,7.968
8.292,8.004
8.296,7.9
8.3,7.828
8.304,7.848
8.308,7.932
8.312,7.936
8.316,7.856
8.32,7.828
8.324,7.84
8.328,7.864
8.332,7.856
8.336,7.848
8.34,7.896
8.344,7.94
8.348,7.892
8.352,7.84
8.356,7.868
8.36,7.884
8.364,7.876
8.368,7.876
8.372,7.92
8.376,7.876
8.38,8.036
8.384,8.004
8.388,7.748
8.392,7.82
8.396,7.912
8.4,7.904
8.404,7.84
8.408,7.8
8.412,7.844
8.416,7.82
8.42,7.892
8.424,7.86
8.428,7.856
8.432,7.836
8.436,7.824
8.44,7.892
8.444,7.896
8.448,7.98
8.452,7.808
8.456,7.896
8.46,7.932
8.464,7.852
8.468,7.856
8.472,7.928
8.476,8.008
8.48,7.896
8.484,7.796
8.488,7.804
8.492,7.836
8.496,7.848
8.5,7.836
8.504,7.852
8.508,7.888
8.512,7.88
8.516,7.924
8.52,7.96
8.524,7.924
8.528,7.932
8.532,7.98
8.536,7.964
8.54,8.02
8.544,8
8.548,8.024
8.552,8.112
8.556,8.204
8.56,8.212
8.564,8.112
8.568,8.088
8.572,8.072
8.576,8.112
8.58,7.984
8.584,7.976
8.588,8.008
8.592,8.076
8.596,8.02
8.6,7.972
8.604,7.964
8.608,7.932
8.612,7.924
8.616,7.868
8.62,7.84
8.624,7.904
8.628,7.876
8.632,7.86
8.636,7.828
8.64,7.88
8.644,7.88
8.648,7.856
8.652,7.832
8.656,7.912
8.66,8.016
8.664,7.836
8.668,7.724
8.672,7.792
8.676,7.824
8.68,7.84
8.684,7.844
8.688,7.832
8.692,7.844
8.696,7.86
8.7,7.836
8.704,7.88
8.708,7.936
8.712,7.856
8.716,7.808
8.72,7.824
8.724,7.912
8.728,8.284
8.732,8.576
8.736,9.236
8.74,10.028
8.744,10.916
8.748,11.128
8.752,9.952
8.756,9.124
8.76,8.644
8.764,8.264
8.768,7.864
8.772,7.596
8.776,7.616
8.78,7.704
8.784,7.82
8.788,7.964
8.792,8.044
8.796,8.02
8.8,8.04
8.804,8.072
8.808,8.072
8.812,8.012
8.816,7.908
8.82,7.964
8.824,7.948
8.828,7.976
8.832,8
8.836,8.056
8.84,8.092
8.844,8.08
8.848,8.068
8.852,8.06
8.856,8.08
8.86,8.16
8.864,8.096
8.868,8.076
8.872,8.16
8.876,8.136
8.88,8.048
8.884,8.072
8.888,8.156
8.892,8.192
8.896,8.184
8.9,8.192
8.904,8.152
8.908,8.228
8.912,8.212
8.916,8.204
8.92,8.252
8.924,8.332
8.928,8.404
8.932,8.388
8.936,8.256
8.94,8.328
8.944,8.412
8.948,8.456
8.952,8.528
8.956,8.628
8.96,8.632
8.964,8.72
8.968,8.732
8.972,8.936
8.976,9.012
8.98,8.88
8.984,8.836
8.988,9.024
8.992,9.116
8.996,9.132
9,9.132
9.004,9.148
9.008,9.24
9.012,9.184
9.016,9.16
9.02,9.152
9.024,9.072
9.028,9.032
9.032,8.856
9.036,8.74
9.04,8.66
9.044,8.612
9.048,8.472
9.052,8.488
9.056,8.452
9.06,8.328
9.064,8.128
9.068,8.056
9.072,7.988
9.076,7.932
9.08,7.984
9.084,8.008
9.088,7.908
9.092,7.944
9.096,7.94
9.1,7.912
9.104,7.908
9.108,7.98
9.112,8.02
9.116,7.9
9.12,7.932
9.124,7.944
9.128,7.948
9.132,7.836
9.136,7.864
9.14,7.964
9.144,8.032
9.148,8
9.152,7.904
9.156,7.772
9.16,7.828
9.164,7.856
9.168,7.856
9.172,7.88
9.176,7.888
9.18,7.912
9.184,7.856
9.188,7.916
9.192,7.964
9.196,7.9
9.2,7.928
9.204,7.956
9.208,7.976
9.212,7.936
9.216,7.88
9.22,7.864
9.224,7.892
9.228,7.892
9.232,7.856
9.236,7.812
9.24,7.832
9.244,7.904
9.248,7.9
9.252,7.892
9.256,7.868
9.26,7.948
9.264,7.944
9.268,7.856
9.272,7.868
9.276,7.992
9.28,7.88
9.284,7.772
9.288,7.772
9.292,7.832
9.296,7.932
9.3,7.952
9.304,7.832
9.308,7.864
9.312,7.788
9.316,7.704
9.32,7.864
9.324,7.848
9.328,7.736
9.332,7.732
9.336,7.776
9.34,7.876
9.344,7.888
9.348,7.796
9.352,7.808
9.356,7.84
9.36,7.82
9.364,7.792
9.368,7.728
9.372,7.804
9.376,7.936
9.38,7.836
9.384,7.808
9.388,7.764
9.392,7.848
9.396,7.892
9.4,7.772
9.404,7.736
9.408,7.816
9.412,7.752
9.416,7.728
9.42,7.704
9.424,7.78
9.428,7.828
9.432,7.808
9.436,7.728
9.44,7.812
9.444,7.82
9.448,7.788
9.452,7.816
9.456,7.844
9.46,7.872
9.464,7.876
9.468,7.852
9.472,7.844
9.476,7.856
9.48,7.876
9.484,7.956
9.488,7.964
9.492,7.844
9.496,7.804
9.5,7.88
9.504,8
9.508,8.076
9.512,8.112
9.516,8.012
9.52,7.98
9.524,7.996
9.528,8.044
9.532,8
9.536,7.94
9.54,7.928
9.544,8.072
9.548,8.012
9.552,7.844
9.556,7.796
9.56,7.952
9.564,7.908
9.568,7.816
9.572,7.72
9.576,7.756
9.58,7.7
9.584,7.7
9.588,7.772
9.592,7.792
9.596,7.772
9.6,7.72
9.604,7.712
9.608,7.764
9.612,7.74
9.616,7.744
9.62,7.704
9.624,7.816
9.628,7.884
9.632,7.816
9.636,7.848
9.64,7.888
9.644,7.864
9.648,7.784
9.652,7.716
9.656,7.676
9.66,7.756
9.664,7.76
9.668,7.616
9.672,7.636
9.676,7.748
9.68,8.096
9.684,8.612
9.688,9.292
9.692,10.048
9.696,11.008
9.7,11.2
9.704,9.904
9.708,9.032
9.712,8.464
9.716,8.108
9.72,7.9
9.724,7.592
9.728,7.468
9.732,7.6
9.736,7.736
9.74,7.948
9.744,7.984
9.748,7.972
9.752,7.92
9.756,7.9
9.76,7.944
9.764,7.956
9.768,7.948
9.772,7.936
9.776,7.9
9.78,7.912
9.784,7.924
9.788,8.004
9.792,8.004
9.796,7.964
9.8,8.012
9.804,8.088
9.808,8.028
9.812,7.96
9.816,7.956
9.82,8.116
9.824,8.152
9.828,8.1
9.832,8
9.836,7.988
9.84,7.956
9.844,8.088
9.848,8.068
9.852,8.056
9.856,8.108
9.86,8.192
9.864,8.208
9.868,8.196
9.872,8.22
9.876,8.244
9.88,8.232
9.884,8.232
9.888,8.396
9.892,8.444
9.896,8.44
9.9,8.456
9.904,8.504
9.908,8.568
9.912,8.608
9.916,8.656
9.92,8.78
9.924,8.816
9.928,8.824
9.932,8.776
9.936,8.876
9.94,8.976
9.944,9.036
9.948,9.072
9.952,9.112
9.956,9.148
9.96,9.236
9.964,9.176
9.968,9.108
9.972,9.064
9.976,9.028
9.98,9.036
9.984,8.804
9.988,8.568
9.992,8.48
9.996,8.456
10,8.432
10.004,8.408
10.008,8.332
10.012,8.216
10.016,8.02
10.02,7.908
10.024,7.916
10.028,7.996
10.032,7.912
10.036,7.84
10.04,7.864
10.044,7.896
10.048,7.868
10.052,7.924
10.056,7.952
10.06,7.88
10.064,7.808
10.068,7.84
10.072,7.872
10.076,8.012
10.08,8
10.084,7.836
10.088,7.792
10.092,7.716
10.096,7.852
10.1,7.864
10.104,7.872
10.108,7.752
10.112,7.82
10.116,7.812
10.12,7.8
10.124,7.872
10.128,7.888
10.132,7.848
10.136,7.812
10.14,7.832
10.144,7.908
10.148,7.828
10.152,7.836
10.156,7.888
10.16,7.976
10.164,7.964
10.168,7.944
10.172,7.872
10.176,7.788
10.18,7.752
10.184,7.768
10.188,7.848
10.192,7.848
10.196,7.812
10.2,7.808
10.204,7.808
10.208,7.816
10.212,7.872
10.216,7.868
10.22,7.82
10.224,7.848
10.228,7.86
10.232,7.864
10.236,7.848
10.24,7.888
10.244,7.908
10.248,7.804
10.252,7.808
10.256,7.832
10.26,7.852
10.264,7.804
10.268,7.716
10.272,7.792
10.276,7.816
10.28,7.832
10.284,7.784
10.288,7.772
10.292,7.824
10.296,7.772
10.3,7.824
10.304,7.796
10.308,7.836
10.312,7.872
10.316,7.82
10.32,7.768
10.324,7.796
10.328,7.824
10.332,7.844
10.336,7.856
10.34,7.872
10.344,7.912
10.348,7.78
10.352,7.664
10.356,7.724
10.36,7.82
10.364,7.844
10.368,7.708
10.372,7.848
10.376,7.728
10.38,7.748
10.384,7.78
10.388,7.796
10.392,7.884
10.396,7.916
10.4,7.82
10.404,7.732
10.408,7.776
10.412,7.896
10.416,7.86
10.42,7.896
10.424,7.928
10.428,7.96
10.432,7.988
10.436,7.928
10.44,7.832
10.444,7.972
10.448,8.056
10.452,8.06
10.456,8.036
10.46,8.048
10.464,7.984
10.468,7.956
10.472,8.008
10.476,8.02
10.48,7.98
10.484,7.948
10.488,7.936
10.492,8.032
10.496,8.02
10.5,8.008
10.504,7.792
10.508,7.812
10.512,7.844
10.516,7.808
10.52,7.712
10.524,7.8
10.528,7.796
10.532,7.744
10.536,7.784
10.54,7.852
10.544,7.864
10.548,7.808
10.552,7.744
10.556,7.756
10.56,7.844
10.564,7.84
10.568,7.816
10.572,7.772
10.576,7.868
10.58,7.884
10.584,7.776
10.588,7.752
10.592,7.912
10.596,7.868
10.6,7.768
10.604,7.748
10.608,7.752
10.612,7.708
10.616,7.736
10.62,7.848
10.624,8.108
10.628,8.508
10.632,9.168
10.636,9.96
10.64,10.928
10.644,11.244
10.648,10.1
10.652,9.128
10.656,8.572
10.66,8.14
10.664,7.864
10.668,7.596
10.672,7.444
10.676,7.6
10.68,7.8
10.684,7.96
10.688,7.92
10.692,7.996
10.696,8.004
10.7,7.912
10.704,7.972
10.708,8.048
10.712,8.004
10.716,7.932
10.72,7.932
10.724,7.952
10.728,8.008
10.732,7.984
10.736,7.952
10.74,8.06
10.744,8.012
10.748,8.052
10.752,8.012
10.756,8.024
10.76,8.076
10.764,8.148
10.768,8.04
10.772,7.996
10.776,8.08
10.78,8.108
10.784,8.136
10.788,8.148
10.792,8.196
10.796,8.24
10.8,8.164
10.804,8.16
10.808,8.188
10.812,8.2
10.816,8.2
10.82,8.268
10.824,8.28
10.828,8.408
10.832,8.344
10.836,8.34
10.84,8.416
10.844,8.52
10.848,8.576
10.852,8.592
10.856,8.632
10.86,8.708
10.864,8.732
10.868,8.808
10.872,8.908
10.876,8.936
10.88,9
10.884,9.096
10.888,9.172
10.892,9.164
10.896,9.236
10.9,9.224
10.904,9.204
10.908,9.232
10.912,9.244
10.916,9.06
10.92,9.04
10.924,9.028
10.928,8.936
10.932,8.82
10.936,8.712
10.94,8.584
10.944,8.524
10.948,8.492
10.952,8.324
10.956,8.256
10.96,8.228
10.964,8.188
10.968,8.192
10.972,8.116
10.976,8.016
10.98,7.964
10.984,7.984
10.988,7.96
10.992,7.964
10.996,7.956
11,7.904
11.004,7.904
11.008,7.948
11.012,7.944
11.016,8.028
11.02,7.944
11.024,7.972
11.028,8.016
11.032,7.936
11.036,7.84
11.04,7.952
11.044,7.984
11.048,7.94
11.052,7.968
11.056,8.044
11.06,7.912
11.064,7.86
11.068,7.944
11.072,7.96
11.076,8.024
11.08,7.968
11.084,7.932
11.088,7.952
11.092,7.944
11.096,7.952
11.1,7.972
11.104,7.956
11.108,7.988
11.112,7.968
11.116,7.908
11.12,7.912
11.124,7.96
11.128,8.012
11.132,7.984
11.136,8.008
11.14,7.96
11.144,8.008
11.148,7.936
11.152,7.904
11.156,7.92
11.16,7.92
11.164,8.008
11.168,7.936
11.172,7.912
11.176,7.932
11.18,7.96
11.184,7.932
11.188,7.932
11.192,7.98
11.196,7.944
11.2,7.92
11.204,7.968
11.208,7.984
11.212,7.976
11.216,7.96
11.22,8.032
11.224,7.964
11.228,7.984
11.232,7.876
11.236,7.816
11.24,7.888
11.244,7.984
11.248,7.856
11.252,7.936
11.256,7.952
11.26,7.952
11.264,7.884
11.268,7.892
11.272,7.888
11.276,7.996
11.28,7.992
11.284,7.964
11.288,7.944
11.292,7.9
11.296,8.016
11.3,8.008
11.304,7.996
11.308,7.948
11.312,8.016
11.316,7.964
11.32,7.856
11.324,7.892
11.328,7.916
11.332,7.924
11.336,7.948
11.34,7.948
11.344,8.008
11.348,7.928
11.352,7.908
11.356,7.924
11.36,7.992
11.364,7.98
11.368,7.952
11.372,7.988
11.376,7.984
11.38,8.056
11.384,7.956
11.388,8.028
11.392,8.092
11.396,8.132
11.4,8.104
11.404,8.06
11.408,8.04
11.412,8.14
11.416,8.184
11.42,8.252
11.424,8.284
11.428,8.2
11.432,8.164
11.436,8.06
11.44,8.092
11.444,8.096
11.448,8.08
11.452,8.128
11.456,8.104
11.46,8.116
11.464,8.052
11.468,7.944
11.472,8.02
11.476,7.98
11.48,7.96
11.484,7.916
11.488,7.912
11.492,7.956
11.496,8.032
11.5,7.972
11.504,7.952
11.508,7.928
11.512,7.916
11.516,7.86
11.52,7.876
11.524,7.996
11.528,7.928
11.532,7.884
11.536,7.86
11.54,7.944
11.544,7.96
11.548,7.936
11.552,7.908
11.556,7.952
11.56,8.032
11.564,8.032
11.568,7.916
11.572,7.94
11.576,7.924
11.58,7.892
11.584,7.86
11.588,8.056
11.592,8.484
11.596,9.108
11.6,9.712
11.604,10.5
11.608,11.296
11.612,10.808
11.616,9.712
11.62,9.028
11.624,8.524
11.628,8.072
11.632,7.74
11.636,7.5
11.64,7.636
11.644,7.896
11.648,8.048
11.652,8.04
11.656,8.096
11.66,8.16
11.664,8.192
11.668,8.132
11.672,8.116
11.676,8.052
11.68,8.08
11.684,8.088
11.688,8.044
11.692,8.072
11.696,8.108
11.7,8.072
11.704,8.056
11.708,8.132
11.712,8.164
11.716,8.152
11.72,8.132
11.724,8.176
11.728,8.164
11.732,8.128
11.736,8.144
11.74,8.236
11.744,8.208
11.748,8.22
11.752,8.22
11.756,8.244
11.76,8.28
11.764,8.256
11.768,8.236
11.772,8.26
11.776,8.3
11.78,8.308
11.784,8.332
11.788,8.332
11.792,8.408
11.796,8.384
11.8,8.436
11.804,8.448
11.808,8.508
11.812,8.608
11.816,8.7
11.82,8.64
11.824,8.68
11.828,8.756
11.832,8.848
11.836,8.888
11.84,8.924
11.844,9.04
11.848,9.128
11.852,9.056
11.856,9.116
11.86,9.204
11.864,9.284
11.868,9.228
11.872,9.26
11.876,9.268
11.88,9.228
11.884,9.232
11.888,9.12
11.892,9.048
11.896,8.952
11.9,8.836
11.904,8.716
11.908,8.648
11.912,8.656
11.916,8.516
11.92,8.384
11.924,8.336
11.928,8.28
11.932,8.136
11.936,8.128
11.94,8.192
11.944,8.192
11.948,7.996
11.952,7.968
11.956,7.988
11.96,8.044
11.964,8.016
11.968,7.98
11.972,8.024
11.976,8.036
11.98,8.048
11.984,7.948
11.988,7.952
11.992,8.068
11.996,8.052
12,7.988
12.004,7.992
12.008,8.06
12.012,8.1
12.016,7.976
12.02,7.944
12.024,7.984
12.028,8.044
12.032,7.972
12.036,7.952
12.04,7.952
12.044,8
12.048,8.008
12.052,7.992
12.056,8
12.06,7.976
12.064,7.984
12.068,8.004
12.072,8.032
12.076,8.012
12.08,7.956
12.084,8.02
12.088,7.992
12.092,8.02
12.096,8.024
12.1,7.988
12.104,7.976
12.108,8
12.112,8.016
12.116,7.952
12.12,7.968
12.124,7.952
12.128,8.004
12.132,7.992
12.136,7.916
12.14,7.928
12.144,7.984
12.148,7.996
12.152,7.996
12.156,7.96
12.16,7.972
12.164,7.904
12.168,7.932
12.172,7.972
12.176,7.984
12.18,7.944
12.184,7.936
12.188,7.968
12.192,8.036
12.196,8.028
12.2,7.94
12.204,7.888
12.208,7.92
12.212,7.968
12.216,7.896
12.22,7.912
12.224,7.912
12.228,8
12.232,7.936
12.236,7.864
12.24,7.956
12.244,7.952
12.248,7.964
12.252,7.94
12.256,7.888
12.26,7.88
12.264,7.988
12.268,7.964
12.272,7.968
12.276,7.976
12.28,7.92
12.284,7.944
12.288,7.932
12.292,7.948
12.296,7.944
12.3,7.976
12.304,7.9
12.308,7.996
12.312,7.936
12.316,7.852
12.32,7.86
12.324,7.912
12.328,7.984
12.332,7.908
12.336,7.968
12.34,8.004
12.344,8.036
12.348,8.016
12.352,8.032
12.356,8.076
12.36,8.084
12.364,8.08
12.368,8.22
12.372,8.228
12.376,8.204
12.38,8.124
12.384,8.108
12.388,8.108
12.392,8.136
12.396,8.052
12.4,8.016
12.404,8.012
12.408,8.108
12.412,8.148
12.416,7.992
12.42,7.904
12.424,7.96
12.428,7.984
12.432,7.992
12.436,7.94
12.44,7.88
12.444,7.944
12.448,7.9
12.452,7.912
12.456,7.92
12.46,8.008
12.464,7.98
12.468,7.892
12.472,7.828
12.476,7.872
12.48,7.892
12.484,7.864
12.488,7.88
12.492,7.952
12.496,7.944
12.5,7.824
12.504,7.82
12.508,7.9
12.512,7.9
12.516,7.888
12.52,7.892
12.524,7.916
12.528,7.88
12.532,7.792
12.536,7.752
12.54,8.06
12.544,8.512
12.548,8.94
12.552,9.62
12.556,10.52
12.56,11.276
12.564,10.672
12.568,9.54
12.572,8.84
12.576,8.468
12.58,8.184
12.584,7.756
12.588,7.56
12.592,7.636
12.596,7.744
12.6,7.884
12.604,8.004
12.608,8.052
12.612,8.064
12.616,8.072
12.62,8.004
12.624,8.044
12.628,8.096
12.632,8.068
12.636,8.072
12.64,8.112
12.644,8.116
12.648,8.132
12.652,8.004
12.656,8.068
12.66,8.08
12.664,8.072
12.668,8.076
12.672,7.996
12.676,8.072
12.68,8.072
12.684,8.104
12.688,8.108
12.692,8.176
12.696,8.16
12.7,8.192
12.704,8.24
12.708,8.316
12.712,8.168
12.716,8.192
12.72,8.248
12.724,8.248
12.728,8.212
12.732,8.216
12.736,8.24
12.74,8.316
12.744,8.28
12.748,8.364
12.752,8.412
12.756,8.448
12.76,8.476
12.764,8.54
12.768,8.624
12.772,8.644
12.776,8.696
12.78,8.836
12.784,8.736
12.788,8.804
12.792,8.904
12.796,9.004
12.8,9.06
12.804,9.116
12.808,9.064
12.812,9.18
12.816,9.236
12.82,9.188
12.824,9.188
12.828,9.244
12.832,9.2
12.836,9.064
12.84,9.048
12.844,8.996
12.848,8.892
12.852,8.732
12.856,8.672
12.86,8.568
12.864,8.516
12.868,8.424
12.872,8.316
12.876,8.248
12.88,8.2
12.884,8.136
12.888,8.096
12.892,8.06
12.896,8.104
12.9,8.096
12.904,7.96
12.908,7.992
12.912,7.952
12.916,7.916
12.92,7.896
12.924,7.904
12.928,7.948
12.932,7.904
12.936,7.948
12.94,7.968
12.944,7.976
12.948,7.904
12.952,7.888
12.956,7.944
12.96,7.956
12.964,7.96
12.968,7.984
12.972,8.044
12.976,8
12.98,7.9
12.984,7.86
12.988,7.88
12.992,7.932
12.996,7.916
13,8.02
13.004,7.968
13.008,7.936
13.012,7.924
13.016,7.892
13.02,7.884
13.024,7.904
13.028,7.952
13.032,7.936
13.036,7.972
13.04,7.852
13.044,7.856
13.048,7.892
13.052,7.888
13.056,7.94
13.06,7.976
13.064,7.976
13.068,7.924
13.072,7.984
13.076,7.972
13.08,8.004
13.084,7.916
13.088,7.868
13.092,7.952
13.096,7.932
13.1,7.88
13.104,7.844
13.108,7.836
13.112,7.784
13.116,7.816
13.12,7.86
13.124,7.88
13.128,7.94
13.132,7.932
13.136,7.876
13.14,7.892
13.144,7.884
13.148,7.92
13.152,7.784
13.156,7.796
13.16,7.856
13.164,7.884
13.168,7.864
13.172,7.956
13.176,7.94
13.18,7.944
13.184,7.844
13.188,7.828
13.192,7.832
13.196,7.888
13.2,7.804
13.204,7.728
13.208,7.844
13.212,7.84
13.216,7.796
13.22,7.848
13.224,7.84
13.228,7.872
13.232,7.832
13.236,7.844
13.24,7.828
13.244,7.912
13.248,7.956
13.252,7.904
13.256,7.944
13.26,7.952
13.264,7.952
13.268,7.992
13.272,7.996
13.276,8.036
13.28,8.204
13.284,8.14
13.288,8.028
13.292,8.084
13.296,8.028
13.3,7.988
13.304,7.972
13.308,8.032
13.312,8.064
13.316,7.988
13.32,7.932
13.324,7.972
13.328,7.984
13.332,7.86
13.336,7.72
13.34,7.808
13.344,7.864
13.348,7.796
13.352,7.808
13.356,7.812
13.36,7.952
13.364,7.932
13.368,7.764
13.372,7.768
13.376,7.852
13.38,7.84
13.384,7.772
13.388,7.7
13.392,7.756
13.396,7.796
13.4,7.76
13.404,7.82
13.408,7.932
13.412,7.904
13.416,7.788
13.42,7.784
13.424,7.824
13.428,7.812
13.432,7.896
13.436,7.82
13.44,7.788
13.444,7.764
13.448,7.74
13.452,8.016
13.456,8.424
13.46,8.92
13.464,9.676
13.468,10.668
13.472,11.328
13.476,10.496
13.48,9.38
13.484,8.64
13.488,8.248
13.492,8.004
13.496,7.808
13.5,7.528
13.504,7.54
13.508,7.672
13.512,7.848
13.516,8.004
13.52,7.98
13.524,8.008
13.528,7.984
13.532,8.008
13.536,8.172
13.54,8.16
13.544,7.976
13.548,7.896
13.552,7.824
13.556,7.948
13.56,8.048
13.564,8.056
13.568,7.964
13.572,7.964
13.576,7.992
13.58,8.06
13.584,8.072
13.588,8.136
13.592,8.148
13.596,8.16
13.6,8.068
13.604,8.092
13.608,8.16
13.612,8.108
13.616,8.112
13.62,8.252
13.624,8.24
13.628,8.212
13.632,8.152
13.636,8.164
13.64,8.216
13.644,8.224
13.648,8.256
13.652,8.312
13.656,8.292
13.66,8.308
13.664,8.424
13.668,8.448
13.672,8.472
13.676,8.576
13.68,8.616
13.684,8.648
13.688,8.696
13.692,8.868
13.696,8.892
13.7,8.804
13.704,8.816
13.708,8.916
13.712,9.052
13.716,9.096
13.72,9.116
13.724,9.088
13.728,9.184
13.732,9.216
13.736,9.228
13.74,9.26
13.744,9.172
13.748,9.104
13.752,9.016
13.756,8.98
13.76,8.816
13.764,8.712
13.768,8.584
13.772,8.552
13.776,8.472
13.78,8.316
13.784,8.168
13.788,8.056
13.792,8.104
13.796,8.152
13.8,7.996
13.804,7.928
13.808,7.944
13.812,8.012
13.816,7.952
13.82,7.892
13.824,7.944
13.828,7.996
13.832,7.884
13.836,7.88
13.84,7.848
13.844,7.868
13.848,7.888
13.852,7.932
13.856,7.94
13.86,8.004
13.864,7.948
13.868,7.884
13.872,7.88
13.876,7.904
13.88,7.916
13.884,7.932
13.888,7.832
13.892,7.876
13.896,7.888
13.9,7.852
13.904,7.888
13.908,7.9
13.912,7.904
13.916,7.904
13.92,7.872
13.924,7.956
13.928,7.904
13.932,7.976
13.936,7.952
13.94,7.904
13.944,7.94
13.948,7.944
13.952,7.876
13.956,7.916
13.96,7.868
13.964,7.94
13.968,7.956
13.972,7.86
13.976,7.86
13.98,7.884
13.984,7.876
13.988,7.904
13.992,7.904
13.996,7.908
14,7.888
14.004,7.904
14.008,7.876
14.012,7.964
14.016,7.88
14.02,7.928
14.024,7.784
14.028,7.832
14.032,7.84
14.036,7.876
14.04,7.9
14.044,7.888
14.048,7.832
14.052,7.868
14.056,7.904
14.06,7.9
14.064,7.9
14.068,7.9
14.072,7.876
14.076,7.808
14.08,7.828
14.084,7.876
14.088,7.86
14.092,7.844
14.096,7.888
14.1,7.808
14.104,7.796
14.108,7.832
14.112,7.9
14.116,7.896
14.12,7.872
14.124,7.796
14.128,7.876
14.132,7.896
14.136,7.876
14.14,7.82
14.144,7.8
14.148,7.86
14.152,7.868
14.156,7.92
14.16,7.964
14.164,7.976
14.168,7.976
14.172,7.984
14.176,8.004
14.18,7.936
14.184,7.956
14.188,8.064
14.192,8.06
14.196,8.064
14.2,8.076
14.204,8.124
14.208,8.148
14.212,8.072
14.216,8.032
14.22,8.1
14.224,8.028
14.228,8
14.232,8
14.236,8.044
14.24,7.968
14.244,7.928
14.248,7.88
14.252,7.892
14.256,7.848
14.26,7.872
14.264,7.88
14.268,7.82
14.272,7.796
14.276,7.8
14.28,7.82
14.284,7.812
14.288,7.852
14.292,7.856
14.296,7.792
14.3,7.82
14.304,7.836
14.308,7.888
14.312,7.928
14.316,7.856
14.32,7.864
14.324,7.88
14.328,7.86
14.332,7.872
14.336,7.832
14.34,7.828
14.344,7.744
14.348,7.792
14.352,7.82
14.356,7.784
14.36,7.764
14.364,7.768
14.368,7.964
14.372,8.456
14.376,9.12
14.38,9.896
14.384,10.7
14.388,11.24
14.392,10.432
14.396,9.404
14.4,8.724
14.404,8.288
14.408,7.908
14.412,7.612
14.416,7.416
14.42,7.508
14.424,7.748
14.428,7.94
14.432,7.952
14.436,7.964
14.44,7.988
14.444,8.052
14.448,7.928
14.452,8.008
14.456,8.052
14.46,8.04
14.464,7.984
14.468,7.964
14.472,7.972
14.476,8.044
14.48,8.052
14.484,8
14.488,8.128
14.492,8.18
14.496,8.096
14.5,8.028
14.504,8.084
14.508,8.112
14.512,8.064
14.516,8.032
14.52,8.072
14.524,8.116
14.528,8.092
14.532,8.088
14.536,8
14.54,8.16
14.544,8.244
14.548,8.212
14.552,8.236
14.556,8.3
14.56,8.328
14.564,8.268
14.568,8.276
14.572,8.388
14.576,8.472
14.58,8.488
14.584,8.484
14.588,8.376
14.592,8.468
14.596,8.56
14.6,8.624
14.604,8.668
14.608,8.784
14.612,8.824
14.616,8.82
14.62,8.888
14.624,9.024
14.628,9.1
14.632,9.068
14.636,9.164
14.64,9.22
14.644,9.172
14.648,9.26
14.652,9.292
14.656,9.304
14.66,9.168
14.664,9.052
14.668,9.02
14.672,8.968
14.676,8.972
14.68,8.808
14.684,8.664
14.688,8.604
14.692,8.544
14.696,8.448
14.7,8.192
14.704,8.16
14.708,8.172
14.712,8.168
14.716,8.08
14.72,8.052
14.724,8.072
14.728,8.012
14.732,8.016
14.736,8.076
14.74,8.068
14.744,7.948
14.748,7.964
14.752,7.98
14.756,7.972
14.76,8.08
14.764,7.976
14.768,7.916
14.772,7.884
14.776,7.92
14.78,7.948
14.784,7.948
14.788,7.936
14.792,7.956
14.796,7.98
14.8,7.964
14.804,7.952
14.808,8.016
14.812,8.088
14.816,8.004
14.82,7.956
14.824,8.076
14.828,8.072
14.832,7.952
14.836,7.988
14.84,8.024
14.844,8.092
14.848,7.992
14.852,7.932
14.856,7.968
14.86,7.98
14.864,8.004
14.868,8.028
14.872,8.02
14.876,8.06
14.88,8.06
14.884,7.936
14.888,7.912
14.892,8
14.896,8.036
14.9,8.028
14.904,8.036
14.908,8.056
14.912,8.06
14.916,8.024
14.92,8.028
14.924,8.06
14.928,8.092
14.932,8.036
14.936,7.984
14.94,7.944
14.944,8.08
14.948,8.168
14.952,7.972
14.956,7.892
14.96,7.92
14.964,7.956
14.968,7.952
14.972,8.036
14.976,8.068
14.98,8.04
14.984,8.032
14.988,8.052
14.992,8.088
14.996,8.016
15,8.036
15.004,8.08
15.008,8.112
15.012,8.092
15.016,8
15.02,7.904
15.024,7.924
15.028,8.036
15.032,7.988
15.036,8
15.04,7.988
15.044,8.052
15.048,8.02
15.052,8.032
15.056,8.024
15.06,8.032
15.064,8.116
15.068,8.096
15.072,8.056
15.076,8.1
15.08,8.096
15.084,8.096
15.088,8.024
15.092,8
15.096,8.096
15.1,8.08
15.104,8.088
15.108,8.1
15.112,8.1
15.116,8.084
15.12,8.132
15.124,8.208
15.128,8.2
15.132,8.196
15.136,8.196
15.14,8.232
15.144,8.304
15.148,8.344
15.152,8.32
15.156,8.276
15.16,8.316
15.164,8.316
15.168,8.348
15.172,8.272
15.176,8.22
15.18,8.204
15.184,8.212
15.188,8.304
15.192,8.3
15.196,8.172
15.2,8.14
15.204,8.008
15.208,8.044
15.212,8.096
15.216,8.056
15.22,8.088
15.224,8.092
15.228,8.084
15.232,8.056
15.236,8.06
15.24,8.072
15.244,8.132
15.248,8.112
15.252,8.064
15.256,8.124
15.26,8.144
15.264,8.116
15.268,8.096
15.272,8.108
15.276,8.124
15.28,8.052
15.284,7.996
15.288,8.064
15.292,8.168
15.296,8.12
15.3,8.096
15.304,8.032
15.308,8.056
15.312,8.048
15.316,8.164
15.32,8.528
15.324,9.02
15.328,9.752
15.332,10.48
15.336,11.452
15.34,11.428
15.344,10.232
15.348,9.464
15.352,8.868
15.356,8.324
15.36,8.032
15.364,7.784
15.368,7.768
15.372,7.964
15.376,8.128
15.38,8.268
15.384,8.3
15.388,8.3
15.392,8.356
15.396,8.328
15.4,8.288
15.404,8.276
15.408,8.424
15.412,8.356
15.416,8.388
15.42,8.316
15.424,8.336
15.428,8.296
15.432,8.232
15.436,8.228
15.44,8.344
15.444,8.38
15.448,8.328
15.452,8.32
15.456,8.344
15.46,8.412
15.464,8.388
15.468,8.436
15.472,8.54
15.476,8.484
15.48,8.456
15.484,8.432
15.488,8.396
15.492,8.452
15.496,8.596
15.5,8.52
15.504,8.5
15.508,8.544
15.512,8.54
15.516,8.568
15.52,8.616
15.524,8.72
15.528,8.748
15.532,8.716
15.536,8.804
15.54,8.872
15.544,8.912
15.548,8.932
15.552,8.924
15.556,9.008
15.56,9.16
15.564,9.216
15.568,9.24
15.572,9.252
15.576,9.268
15.58,9.396
15.584,9.412
15.588,9.472
15.592,9.524
15.596,9.572
15.6,9.58
15.604,9.552
15.608,9.584
15.612,9.56
15.616,9.5
15.62,9.376
15.624,9.328
15.628,9.18
15.632,9.132
15.636,8.988
15.64,8.888
15.644,8.84
15.648,8.784
15.652,8.648
15.656,8.584
15.66,8.544
15.664,8.46
15.668,8.456
15.672,8.412
15.676,8.36
15.68,8.324
15.684,8.34
15.688,8.268
15.692,8.344
15.696,8.348
15.7,8.364
15.704,8.308
15.708,8.332
15.712,8.416
15.716,8.404
15.72,8.392
15.724,8.356
15.728,8.312
15.732,8.204
15.736,8.216
15.74,8.348
15.744,8.408
15.748,8.292
15.752,8.272
15.756,8.256
15.76,8.348
15.764,8.332
15.768,8.304
15.772,8.324
15.776,8.324
15.78,8.412
15.784,8.32
15.788,8.336
15.792,8.276
15.796,8.292
15.8,8.384
15.804,8.324
15.808,8.324
15.812,8.308
15.816,8.244
15.82,8.256
15.824,8.352
15.828,8.364
15.832,8.3
15.836,8.232
15.84,8.252
15.844,8.3
15.848,8.268
15.852,8.28
15.856,8.348
15.86,8.32
15.864,8.244
15.868,8.22
15.872,8.324
15.876,8.3
15.88,8.3
15.884,8.256
15.888,8.32
15.892,8.304
15.896,8.348
15.9,8.316
15.904,8.208
15.908,8.18
15.912,8.204
15.916,8.232
15.92,8.296
15.924,8.208
15.928,8.212
15.932,8.256
15.936,8.204
15.94,8.24
15.944,8.24
15.948,8.228
15.952,8.24
15.956,8.256
15.96,8.296
15.964,8.244
15.968,8.172
15.972,8.264
15.976,8.284
15.98,8.304
15.984,8.248
15.988,8.276
15.992,8.272
15.996,8.24
16,8.192
16.004,8.208
16.008,8.204
16.012,8.216
16.016,8.148
16.02,8.212
16.024,8.196
16.028,8.244
16.032,8.268
16.036,8.26
16.04,8.344
16.044,8.32
16.048,8.276
16.052,8.36
16.056,8.392
16.06,8.408
16.064,8.324
16.068,8.3
16.072,8.384
16.076,8.464
16.08,8.532
16.084,8.484
16.088,8.528
16.092,8.456
16.096,8.48
16.1,8.424
16.104,8.388
16.108,8.412
16.112,8.436
16.116,8.352
16.12,8.296
16.124,8.34
16.128,8.304
16.132,8.24
16.136,8.212
16.14,8.212
16.144,8.172
16.148,8.184
16.152,8.22
16.156,8.224
16.16,8.232
16.164,8.208
16.168,8.196
16.172,8.252
16.176,8.192
16.18,8.2
16.184,8.2
16.188,8.232
16.192,8.232
16.196,8.18
16.2,8.116
16.204,8.16
16.208,8.176
16.212,8.168
16.216,8.208
16.22,8.268
16.224,8.336
16.228,8.304
16.232,8.156
16.236,8.068
16.24,8.052
16.244,8.152
16.248,8.34
16.252,8.784
16.256,9.508
16.26,10.26
16.264,11.128
16.268,11.568
16.272,10.496
16.276,9.56
16.28,9.048
16.284,8.684
16.288,8.424
16.292,8.052
16.296,7.868
16.3,7.9
16.304,8.028
16.308,8.18
16.312,8.272
16.316,8.392
16.32,8.296
16.324,8.304
16.328,8.304
16.332,8.272
16.336,8.268
16.34,8.34
16.344,8.372
16.348,8.38
16.352,8.356
16.356,8.34
16.36,8.412
16.364,8.412
16.368,8.384
16.372,8.396
16.376,8.388
16.38,8.316
16.384,8.368
16.388,8.392
16.392,8.396
16.396,8.404
16.4,8.412
16.404,8.448
16.408,8.468
16.412,8.464
16.416,8.42
16.42,8.408
16.424,8.484
16.428,8.54
16.432,8.488
16.436,8.536
16.44,8.572
16.444,8.6
16.448,8.608
16.452,8.628
16.456,8.716
16.46,8.74
16.464,8.752
16.468,8.752
16.472,8.796
16.476,8.832
16.48,8.948
16.484,8.968
16.488,9.004
16.492,9.076
16.496,9.06
16.5,9.16
16.504,9.24
16.508,9.32
16.512,9.396
16.516,9.384
16.52,9.424
16.524,9.488
16.528,9.48
16.532,9.432
16.536,9.464
16.54,9.468
16.544,9.476
16.548,9.356
16.552,9.204
16.556,9.096
16.56,8.996
16.564,8.952
16.568,8.832
16.572,8.612
16.576,8.524
16.58,8.504
16.584,8.448
16.588,8.372
16.592,8.408
16.596,8.416
16.6,8.272
16.604,8.28
16.608,8.252
16.612,8.272
16.616,8.224
16.62,8.276
16.624,8.304
16.628,8.164
16.632,8.224
16.636,8.24
16.64,8.148
16.644,8.196
16.648,8.176
16.652,8.136
16.656,8.172
16.66,8.3
16.664,8.232
16.668,8.104
16.672,8.112
16.676,8.172
16.68,8.14
16.684,8.12
16.688,8.18
16.692,8.28
16.696,8.236
16.7,8.124
16.704,8.14
16.708,8.184
16.712,8.204
16.716,8.192
16.72,8.176
16.724,8.188
16.728,8.156
16.732,8.16
16.736,8.2
16.74,8.308
16.744,8.3
16.748,8.168
16.752,8.048
16.756,8.104
16.76,8.14
16.764,8.108
16.768,8.112
16.772,8.128
16.776,8.084
16.78,8.168
16.784,8.22
16.788,8.192
16.792,8.048
16.796,8.024
16.8,8.104
16.804,8.116
16.808,8.2
16.812,8.152
16.816,8.168
16.82,8.16
16.824,8.06
16.828,8.08
16.832,8.096
16.836,8.088
16.84,8.156
16.844,8.172
16.848,8.104
16.852,8.04
16.856,8.004
16.86,8.092
16.864,8.144
16.868,8.104
16.872,8.016
16.876,8.064
16.88,8.036
16.884,8.124
16.888,8.048
16.892,8.016
16.896,8.052
16.9,8.06
16.904,8.064
16.908,8.112
16.912,8.136
16.916,8.076
16.92,8.144
16.924,8.288
16.928,8.184
16.932,8.188
16.936,8.228
16.94,8.036
16.944,8.056
16.948,8.148
16.952,8.232
16.956,8.292
16.96,8.28
16.964,8.316
16.968,8.284
16.972,8.332
16.976,8.296
16.98,8.236
16.984,8.244
16.988,8.244
16.992,8.24
16.996,8.216
17,8.212
17.004,8.132
17.008,8.14
17.012,8.156
17.016,7.992
17.02,7.912
17.024,7.972
17.028,7.952
17.032,7.948
17.036,7.968
17.04,7.948
17.044,7.992
17.048,7.968
17.052,7.96
17.056,7.972
17.06,8
17.064,7.988
17.068,7.988
17.072,8.028
17.076,8.112
17.08,7.98
17.084,7.996
17.088,8.032
17.092,8.052
17.096,8.052
17.1,8.028
17.104,7.908
17.108,7.9
17.112,7.936
17.116,7.92
17.12,7.824
17.124,7.904
17.128,8.14
17.132,8.516
17.136,9.084
17.14,9.984
17.144,10.836
17.148,11.496
17.152,10.6
17.156,9.508
17.16,8.78
17.164,8.468
17.168,8.2
17.172,7.948
17.176,7.748
17.18,7.72
17.184,7.824
17.188,7.976
17.192,8.052
17.196,8.108
17.2,8.144
17.204,8.076
17.208,8.144
17.212,8.152
17.216,8.028
17.22,8.04
17.224,8.12
17.228,8.204
17.232,8.172
17.236,8.16
17.24,8.18
17.244,8.124
17.248,8.104
17.252,8.148
17.256,8.26
17.26,8.332
17.264,8.348
17.268,8.184
17.272,8.116
17.276,8.112
17.28,8.2
17.284,8.22
17.288,8.2
17.292,8.284
17.296,8.368
17.3,8.252
17.304,8.232
17.308,8.3
17.312,8.228
17.316,8.308
17.32,8.396
17.324,8.428
17.328,8.412
17.332,8.436
17.336,8.384
17.34,8.54
17.344,8.676
17.348,8.688
17.352,8.644
17.356,8.616
17.36,8.744
17.364,8.756
17.368,8.824
17.372,8.924
17.376,8.952
17.38,8.972
17.384,9.052
17.388,9.168
17.392,9.284
17.396,9.3
17.4,9.26
17.404,9.276
17.408,9.344
17.412,9.348
17.416,9.32
17.42,9.248
17.424,9.196
17.428,9.096
17.432,8.952
17.436,8.812
17.44,8.86
17.444,8.764
17.448,8.5
17.452,8.452
17.456,8.428
17.46,8.272
17.464,8.308
17.468,8.216
17.472,8.148
17.476,8.064
17.48,8.096
17.484,8.076
17.488,8.004
17.492,8.108
17.496,8.128
17.5,7.996
17.504,7.952
17.508,8.052
17.512,8.1
17.516,8.012
17.52,7.984
17.524,8.02
17.528,7.956
17.532,7.92
17.536,7.868
17.54,7.892
17.544,8.016
17.548,7.972
17.552,7.928
17.556,7.948
17.56,7.98
17.564,7.992
17.568,7.96
17.572,7.912
17.576,8.052
17.58,7.988
17.584,7.992
17.588,7.976
17.592,7.968
17.596,8.036
17.6,8.076
17.604,7.984
17.608,7.956
17.612,7.928
17.616,7.98
17.62,7.968
17.624,7.92
17.628,7.872
17.632,7.904
17.636,7.912
17.64,7.948
17.644,8.008
17.648,7.98
17.652,7.9
17.656,7.916
17.66,7.964
17.664,7.936
17.668,7.908
17.672,8.024
17.676,8.092
17.68,7.912
17.684,7.844
17.688,7.856
17.692,8.016
17.696,7.992
17.7,7.908
17.704,7.868
17.708,7.884
17.712,7.876
17.716,7.932
17.72,7.912
17.724,7.952
17.728,7.9
17.732,7.852
17.736,7.868
17.74,7.812
17.744,7.836
17.748,7.892
17.752,7.896
17.756,7.968
17.76,7.968
17.764,7.884
17.768,7.884
17.772,7.956
17.776,8.028
17.78,7.868
17.784,7.844
17.788,7.828
17.792,7.948
17.796,7.996
17.8,7.96
17.804,7.948
17.808,7.98
17.812,7.98
17.816,8.004
17.82,8.036
17.824,8.136
17.828,8.224
17.832,8.172
17.836,8.116
17.84,8.132
17.844,8.18
17.848,8.148
17.852,8.072
17.856,8.048
17.86,8.156
17.864,8.148
17.868,8.152
17.872,8
17.876,7.84
17.88,7.86
17.884,7.736
17.888,7.784
17.892,7.804
17.896,7.848
17.9,7.844
17.904,7.856
17.908,7.86
17.912,7.88
17.916,7.856
17.92,7.776
17.924,7.828
17.928,7.9
17.932,7.868
17.936,7.776
17.94,7.888
17.944,7.884
17.948,7.852
17.952,7.888
17.956,7.968
17.96,7.924
17.964,7.84
17.968,7.744
17.972,7.836
17.976,7.892
17.98,7.88
17.984,7.688
17.988,7.74
17.992,7.74
17.996,7.756
18,7.908
18.004,8.212
18.008,8.628
18.012,9.332
18.016,10.136
18.02,11.068
18.024,11.24
18.028,10.04
18.032,9.056
18.036,8.528
18.04,8.16
18.044,7.972
18.048,7.7
18.052,7.496
18.056,7.568
18.06,7.684
18.064,7.808
18.068,7.96
18.072,8.032
18.076,7.956
18.08,7.976
18.084,7.912
18.088,7.94
18.092,8.028
18.096,8.012
18.1,7.956
18.104,8.004
18.108,8.012
18.112,8.072
18.116,8.064
18.12,8.064
18.124,8.072
18.128,8.124
18.132,8.056
18.136,8.104
18.14,8.112
18.144,8.056
18.148,7.892
18.152,7.952
18.156,8.088
18.16,8.12
18.164,8.104
18.168,8.076
18.172,8.12
18.176,8.2
18.18,8.2
18.184,8.2
18.188,8.24
18.192,8.288
18.196,8.4
18.2,8.284
18.204,8.224
18.208,8.304
18.212,8.388
18.216,8.392
18.22,8.464
18.224,8.596
18.228,8.616
18.232,8.604
18.236,8.62
18.24,8.672
18.244,8.736
18.248,8.812
18.252,8.82
18.256,8.92
18.26,9.068
18.264,9.064
18.268,9.06
18.272,9.2
18.276,9.204
18.28,9.2
18.284,9.216
18.288,9.216
18.292,9.276
18.296,9.216
18.3,9.144
18.304,9.128
18.308,8.924
18.312,8.764
18.316,8.66
18.32,8.568
18.324,8.46
18.328,8.392
18.332,8.252
18.336,8.192
18.34,8.188
18.344,8.192
18.348,8.1
18.352,8.084
18.356,8.084
18.36,8.004
18.364,7.952
18.368,8
18.372,8.024
18.376,8.06
18.38,8.052
18.384,7.892
18.388,7.88
18.392,7.912
18.396,7.924
18.4,7.92
18.404,7.968
18.408,8.052
18.412,7.96
18.416,7.88
18.42,7.94
18.424,7.944
18.428,8.008
18.432,7.912
18.436,7.908
18.44,7.972
18.444,7.98
18.448,7.924
18.452,7.908
18.456,7.984
18.46,8.064
18.464,7.988
18.468,8.016
18.472,7.912
18.476,7.932
18.48,7.944
18.484,7.928
18.488,8.04
18.492,8.112
18.496,8.016
18.5,7.872
18.504,7.852
18.508,7.944
18.512,7.976
18.516,7.904
18.52,7.952
18.524,8.004
18.528,7.936
18.532,7.88
18.536,7.924
18.54,7.96
18.544,8.008
18.548,7.92
18.552,7.88
18.556,7.976
18.56,8.012
18.564,7.992
18.568,7.876
18.572,7.928
18.576,7.988
18.58,7.924
18.584,7.872
18.588,7.852
18.592,7.888
18.596,7.896
18.6,7.916
18.604,7.936
18.608,7.96
18.612,7.92
18.616,7.848
18.62,7.844
18.624,7.98
18.628,8.088
18.632,7.856
18.636,7.764
18.64,7.832
18.644,7.888
18.648,7.92
18.652,7.9
18.656,8.02
18.66,7.996
18.664,7.868
18.668,7.792
18.672,7.888
18.676,7.932
18.68,7.956
18.684,7.872
18.688,7.896
18.692,7.904
18.696,7.88
18.7,7.936
18.704,7.976
18.708,8.012
18.712,8.06
18.716,7.924
18.72,8.016
18.724,8.076
18.728,8.084
18.732,8.104
18.736,8.104
18.74,8.228
18.744,8.3
18.748,8.22
18.752,8.172
18.756,8.216
18.76,8.14
18.764,8.116
18.768,8.132
18.772,8.116
18.776,8.124
18.78,8.036
18.784,7.956
18.788,7.984
18.792,8.008
18.796,7.964
18.8,7.984
18.804,7.884
18.808,7.924
18.812,7.9
18.816,7.852
18.82,7.868
18.824,7.928
18.828,7.908
18.832,7.9
18.836,7.928
18.84,7.988
18.844,7.992
18.848,7.832
18.852,7.824
18.856,7.888
18.86,7.824
18.864,7.848
18.868,7.8
18.872,7.82
18.876,7.872
18.88,7.88
18.884,7.872
18.888,7.92
18.892,7.956
18.896,7.988
18.9,7.9
18.904,7.868
18.908,7.868
18.912,7.884
18.916,7.94
18.92,8.304
18.924,8.916
18.928,9.656
18.932,10.404
18.936,11.232
18.94,10.972
18.944,9.92
18.948,9.116
18.952,8.492
18.956,8.088
18.96,7.756
18.964,7.516
18.968,7.516
18.972,7.788
18.976,7.96
18.98,8.016
18.984,8.004
18.988,8.12
18.992,8.164
18.996,8.056
19,8.024
19.004,8.052
19.008,8.092
19.012,8.072
19.016,7.88
19.02,8.012
19.024,8.116
19.028,8.14
19.032,8.02
19.036,7.98
19.04,8.06
19.044,8.052
19.048,8.056
19.052,8.048
19.056,8.08
19.06,8.148
19.064,8.112
19.068,8.104
19.072,8.168
19.076,8.212
19.08,8.212
19.084,8.264
19.088,8.264
19.092,8.232
19.096,8.088
19.1,8.172
19.104,8.304
19.108,8.276
19.112,8.288
19.116,8.216
19.12,8.316
19.124,8.392
19.128,8.372
19.132,8.4
19.136,8.46
19.14,8.548
19.144,8.6
19.148,8.544
19.152,8.672
19.156,8.756
19.16,8.808
19.164,8.792
19.168,8.916
19.172,9.108
19.176,9.032
19.18,8.984
19.184,9.092
19.188,9.216
19.192,9.28
19.196,9.168
19.2,9.108
19.204,9.188
19.208,9.2
19.212,9.252
19.216,9.112
19.22,9.044
19.224,9.016
19.228,8.892
19.232,8.72
19.236,8.616
19.24,8.524
19.244,8.468
19.248,8.34
19.252,8.32
19.256,8.288
19.26,8.272
19.264,8.052
19.268,7.992
19.272,8.068
19.276,8.108
19.28,8.136
19.284,8.028
19.288,7.984
19.292,8.04
19.296,7.932
19.3,7.956
19.304,7.968
19.308,7.964
19.312,7.956
19.316,7.976
19.32,7.976
19.324,7.996
19.328,8.036
19.332,7.94
19.336,7.944
19.34,7.988
19.344,8.076
19.348,8.004
19.352,7.952
19.356,8.016
19.36,8.012
19.364,7.98
19.368,7.92
19.372,7.976
19.376,7.984
19.38,7.972
19.384,7.984
19.388,7.968
19.392,7.956
19.396,7.96
19.4,7.956
19.404,7.988
19.408,7.976
19.412,7.976
19.416,7.964
19.42,7.968
19.424,8.044
19.428,7.976
19.432,7.864
19.436,7.972
19.44,8.032
19.444,8.064
19.448,7.988
19.452,7.936
19.456,7.9
19.46,7.912
19.464,7.94
19.468,7.92
19.472,7.94
19.476,7.944
19.48,7.94
19.484,7.912
19.488,7.912
19.492,7.956
19.496,7.94
19.5,7.98
19.504,7.868
19.508,7.92
19.512,7.932
19.516,7.884
19.52,7.92
19.524,7.968
19.528,8.02
19.532,7.992
19.536,7.952
19.54,8.004
19.544,7.932
19.548,7.808
19.552,7.86
19.556,7.884
19.56,7.948
19.564,7.916
19.568,7.808
19.572,7.836
19.576,7.896
19.58,7.912
19.584,7.904
19.588,7.908
19.592,7.964
19.596,7.9
19.6,7.836
19.604,7.908
19.608,7.968
19.612,7.996
19.616,7.916
19.62,8.008
19.624,8.06
19.628,8.112
19.632,7.924
19.636,7.932
19.64,8.016
19.644,8.044
19.648,7.992
19.652,7.992
19.656,8.1
19.66,8.16
19.664,8.136
19.668,8.108
19.672,8.12
19.676,8.188
19.68,8.076
19.684,8.02
19.688,8.056
19.692,8.136
19.696,8.044
19.7,8.044
19.704,7.932
19.708,7.96
19.712,7.96
19.716,7.936
19.72,7.984
19.724,8.008
19.728,8
19.732,7.836
19.736,7.756
19.74,7.796
19.744,7.812
19.748,7.796
19.752,7.848
19.756,7.876
19.76,7.896
19.764,7.88
19.768,7.848
19.772,7.86
19.776,7.884
19.78,7.808
19.784,7.868
19.788,7.876
19.792,7.928
19.796,7.888
19.8,7.88
19.804,7.876
19.808,7.928
19.812,7.888
19.816,7.78
19.82,7.804
19.824,7.892
19.828,7.996
19.832,8.284
19.836,8.876
19.84,9.664
19.844,10.596
19.848,11.252
19.852,10.544
19.856,9.468
19.86,8.88
19.864,8.444
19.868,8.092
19.872,7.816
19.876,7.496
19.88,7.524
19.884,7.692
19.888,7.84
19.892,7.976
19.896,7.996
19.9,8
19.904,8.008
19.908,8.064
19.912,8.044
19.916,8.052
19.92,8.088
19.924,8.004
19.928,7.908
19.932,7.956
19.936,8.004
19.94,8.084
19.944,8.084
19.948,7.944
19.952,7.952
19.956,8.028
19.96,8.06
19.964,8.036
19.968,8.028
19.972,8.076
19.976,8.092
19.98,8.128
19.984,8.12
19.988,8.168
19.992,8.22
19.996,8.112
20,8.088
20.004,8.144
20.008,8.284
20.012,8.304
20.016,8.24
20.02,8.224
20.024,8.264
20.028,8.212
20.032,8.252
20.036,8.304
20.04,8.424
20.044,8.44
20.048,8.428
20.052,8.524
20.056,8.58
20.06,8.64
20.064,8.664
20.068,8.716
20.072,8.84
20.076,8.848
20.08,8.912
20.084,8.916
20.088,8.932
20.092,9.048
20.096,9.104
20.1,9.112
20.104,9.152
20.108,9.176
20.112,9.224
20.116,9.14
20.12,9.108
20.124,9.136
20.128,9.06
20.132,8.904
20.136,8.816
20.14,8.796
20.144,8.712
20.148,8.548
20.152,8.416
20.156,8.364
20.16,8.308
20.164,8.208
20.168,8.104
20.172,8.096
20.176,8.16
20.18,8.08
20.184,7.952
20.188,8
20.192,7.972
20.196,7.904
20.2,7.936
20.204,7.932
20.208,7.956
20.212,7.948
20.216,7.88
20.22,7.86
20.224,7.932
20.228,7.928
20.232,7.9
20.236,7.9
20.24,7.968
20.244,7.968
20.248,7.824
20.252,7.928
20.256,7.968
20.26,7.924
20.264,7.836
20.268,7.864
20.272,7.956
20.276,8
20.28,7.968
20.284,7.976
20.288,7.996
20.292,7.952
20.296,7.9
20.3,7.892
20.304,7.956
20.308,7.96
20.312,7.828
20.316,7.744
20.32,7.84
20.324,7.9
20.328,7.956
20.332,7.9
20.336,7.876
20.34,7.884
20.344,7.932
20.348,7.876
20.352,7.868
20.356,7.876
20.36,7.976
20.364,7.96
20.368,7.908
20.372,7.796
20.376,7.852
20.38,7.856
20.384,7.908
20.388,7.988
20.392,7.956
20.396,7.864
20.4,7.696
20.404,7.76
20.408,7.836
20.412,7.836
20.416,7.864
20.42,7.784
20.424,7.856
20.428,7.844
20.432,7.796
20.436,7.792
20.44,7.852
20.444,7.964
20.448,7.9
20.452,7.716
20.456,7.772
20.46,7.808
20.464,7.82
20.468,7.924
20.472,7.92
20.476,7.904
20.48,7.976
20.484,7.892
20.488,7.844
20.492,7.984
20.496,7.972
20.5,7.9
20.504,7.848
20.508,7.924
20.512,7.996
20.516,8.052
20.52,8.112
20.524,8.188
20.528,8.18
20.532,8.036
20.536,8.052
20.54,8.028
20.544,8.024
20.548,7.948
20.552,7.952
20.556,7.96
20.56,7.96
20.564,7.812
20.568,7.828
20.572,7.908
20.576,7.868
20.58,7.784
20.584,7.688
20.588,7.688
20.592,7.688
20.596,7.708
20.6,7.692
20.604,7.744
20.608,7.804
20.612,7.776
20.616,7.768
20.62,7.748
20.624,7.776
20.628,7.732
20.632,7.72
20.636,7.74
20.64,7.856
20.644,7.864
20.648,7.88
20.652,7.788
20.656,7.832
20.66,7.86
20.664,7.66
20.668,7.652
20.672,7.724
20.676,7.716
20.68,7.64
20.684,7.676
20.688,7.96
20.692,8.424
20.696,9.072
20.7,9.8
20.704,10.684
20.708,11.156
20.712,10.252
20.716,9.156
20.72,8.556
20.724,8.2
20.728,7.928
20.732,7.632
20.736,7.528
20.74,7.62
20.744,7.696
20.748,7.76
20.752,7.736
20.756,7.888
20.76,7.912
20.764,7.884
20.768,7.872
20.772,7.988
20.776,8.008
20.78,7.88
20.784,7.908
20.788,7.932
20.792,7.944
20.796,7.952
20.8,7.904
20.804,7.972
20.808,8.008
20.812,7.98
20.816,7.968
20.82,8
20.824,8.092
20.828,8.112
20.832,8.056
20.836,7.964
20.84,8.112
20.844,8.22
20.848,8.128
20.852,8.084
20.856,7.984
20.86,7.968
20.864,8.008
20.868,8.052
20.872,8.184
20.876,8.216
20.88,8.196
20.884,8.232
20.888,8.232
20.892,8.284
20.896,8.304
20.9,8.34
20.904,8.38
20.908,8.448
20.912,8.452
20.916,8.496
20.92,8.556
20.924,8.652
20.928,8.668
20.932,8.76
20.936,8.808
20.94,8.88
20.944,8.936
20.948,8.952
20.952,9.02
20.956,9.12
20.96,9.128
20.964,9.104
20.968,9.116
20.972,9.188
20.976,9.256
20.98,9.092
20.984,8.928
20.988,8.888
20.992,8.812
20.996,8.684
21,8.584
21.004,8.54
21.008,8.416
21.012,8.28
21.016,8.204
21.02,8.204
21.024,8.192
21.028,8.076
21.032,7.964
21.036,7.952
21.04,7.972
21.044,7.948
21.048,7.904
21.052,7.808
21.056,7.832
21.06,7.884
21.064,7.88
21.068,7.872
21.072,7.924
21.076,8.032
21.08,7.876
21.084,7.824
21.088,7.892
21.092,7.908
21.096,7.752
21.1,7.732
21.104,7.764
21.108,7.804
21.112,7.844
21.116,7.844
21.12,7.884
21.124,7.896
21.128,7.864
21.132,7.84
21.136,7.852
21.14,7.864
21.144,7.896
21.148,7.836
21.152,7.848
21.156,7.832
21.16,7.88
21.164,7.852
21.168,7.896
21.172,7.952
21.176,7.936
21.18,7.92
21.184,7.88
21.188,7.864
21.192,7.864
21.196,7.788
21.2,7.788
21.204,7.808
21.208,7.948
21.212,7.88
21.216,7.84
21.22,7.828
21.224,7.856
21.228,7.872
21.232,7.856
21.236,7.852
21.24,7.968
21.244,7.916
21.248,7.808
21.252,7.804
21.256,7.868
21.26,7.844
21.264,7.796
21.268,7.768
21.272,7.844
21.276,7.892
21.28,7.856
21.284,7.892
21.288,7.832
21.292,7.804
21.296,7.792
21.3,7.788
21.304,7.832
21.308,7.892
21.312,7.836
21.316,7.804
21.32,7.784
21.324,7.82
21.328,7.788
21.332,7.772
21.336,7.812
21.34,7.876
21.344,7.852
21.348,7.768
21.352,7.78
21.356,7.82
21.36,7.912
21.364,7.896
21.368,7.952
21.372,7.944
21.376,7.952
21.38,7.924
21.384,7.924
21.388,8.008
21.392,8.068
21.396,8.128
21.4,8.1
21.404,8.128
21.408,8.124
21.412,8.08
21.416,8.1
21.42,7.992
21.424,7.988
21.428,8.024
21.432,7.976
21.436,7.896
21.44,7.884
21.444,7.864
21.448,7.82
21.452,7.864
21.456,7.84
21.46,7.796
21.464,7.792
21.468,7.776
21.472,7.812
21.476,7.868
21.48,7.84
21.484,7.848
21.488,7.772
21.492,7.76
21.496,7.74
21.5,7.796
21.504,7.836
21.508,7.86
21.512,7.836
21.516,7.808
21.52,7.872
21.524,7.872
21.528,7.804
21.532,7.748
21.536,7.804
21.54,7.924
21.544,7.888
21.548,7.836
21.552,7.8
21.556,7.864
21.56,7.84
21.564,7.82
21.568,7.992
21.572,8.46
21.576,9.052
21.58,9.84
21.584,10.772
21.588,11.292
21.592,10.332
21.596,9.332
21.6,8.736
21.604,8.312
21.608,8.004
21.612,7.676
21.616,7.524
21.62,7.684
21.624,7.788
21.628,7.888
21.632,8.044
21.636,8.044
21.64,8.12
21.644,8.068
21.648,8.02
21.652,7.94
21.656,8.032
21.66,8.06
21.664,7.996
21.668,8.06
21.672,7.996
21.676,8.012
21.68,8.04
21.684,8.04
21.688,8.076
21.692,8.092
21.696,8.084
21.7,7.996
21.704,8.024
21.708,8.104
21.712,8.176
21.716,8.204
21.72,8.192
21.724,8.184
21.728,8.192
21.732,8.236
21.736,8.188
21.74,8.184
21.744,8.252
21.748,8.292
21.752,8.352
21.756,8.328
21.76,8.368
21.764,8.264
21.768,8.336
21.772,8.424
21.776,8.48
21.78,8.488
21.784,8.472
21.788,8.512
21.792,8.64
21.796,8.764
21.8,8.764
21.804,8.828
21.808,8.896
21.812,8.848
21.816,8.94
21.82,9.02
21.824,9.14
21.828,9.192
21.832,9.228
21.836,9.284
21.84,9.352
21.844,9.372
21.848,9.264
21.852,9.244
21.856,9.344
21.86,9.428
21.864,9.372
21.868,9.184
21.872,9.096
21.876,8.952
21.88,8.856
21.884,8.792
21.888,8.748
21.892,8.696
21.896,8.488
21.9,8.484
21.904,8.392
21.908,8.252
21.912,8.192
21.916,8.124
21.92,8.24
21.924,8.2
21.928,8.216
21.932,8.148
21.936,8.108
21.94,8.132
21.944,8.136
21.948,8.116
21.952,8.1
21.956,8.18
21.96,8.2
21.964,8.188
21.968,8.172
21.972,8.172
21.976,8.204
21.98,8.152
21.984,8.168
21.988,8.156
21.992,8.22
21.996,8.172
22,8.176
22.004,8.176
22.008,8.228
22.012,8.236
22.016,8.144
22.02,8.156
22.024,8.164
22.028,8.228
22.032,8.176
22.036,8.192
22.04,8.236
22.044,8.224
22.048,8.216
22.052,8.216
22.056,8.22
22.06,8.236
22.064,8.176
22.068,8.192
22.072,8.204
22.076,8.212
22.08,8.196
22.084,8.252
22.088,8.232
22.092,8.244
22.096,8.22
22.1,8.2
22.104,8.184
22.108,8.192
22.112,8.168
22.116,8.156
22.12,8.164
22.124,8.208
22.128,8.116
22.132,8.052
22.136,8.076
22.14,8.088
22.144,8.152
22.148,8.128
22.152,8.156
22.156,8.112
22.16,8.128
22.164,8.128
22.168,8.108
22.172,8.14
22.176,8.164
22.18,8.148
22.184,8.136
22.188,8.168
22.192,8.208
22.196,8.18
22.2,8.212
22.204,8.148
22.208,8.152
22.212,8.18
22.216,8.108
22.22,8.148
22.224,8.152
22.228,8.256
22.232,8.292
22.236,8.272
22.24,8.264
22.244,8.248
22.248,8.244
22.252,8.288
22.256,8.352
22.26,8.368
22.264,8.336
22.268,8.344
22.272,8.4
22.276,8.38
22.28,8.32
22.284,8.3
22.288,8.292
22.292,8.316
22.296,8.284
22.3,8.204
22.304,8.184
22.308,8.168
22.312,8.124
22.316,8.06
22.32,8.024
22.324,8.08
22.328,8.096
22.332,8.076
22.336,8.028
22.34,8.04
22.344,7.996
22.348,7.984
22.352,7.996
22.356,8.024
22.36,8.004
22.364,7.996
22.368,7.972
22.372,8.008
22.376,8.044
22.38,7.996
22.384,8.016
22.388,8.004
22.392,8.06
22.396,8.072
22.4,8.02
22.404,8.048
22.408,8.104
22.412,8.088
22.416,8
22.42,7.948
22.424,7.972
22.428,8.08
22.432,8.32
22.436,8.728
22.44,9.412
22.444,10.164
22.448,11.036
22.452,11.484
22.456,10.568
22.46,9.596
22.464,8.948
22.468,8.488
22.472,8.14
22.476,7.848
22.48,7.692
22.484,7.772
22.488,8.028
22.492,8.152
22.496,8.188
22.5,8.2
22.504,8.228
22.508,8.276
22.512,8.284
22.516,8.248
22.52,8.24
22.524,8.248
22.528,8.224
22.532,8.188
22.536,8.22
22.54,8.3
22.544,8.28
22.548,8.228
22.552,8.216
22.556,8.268
22.56,8.296
22.564,8.252
22.568,8.26
22.572,8.292
22.576,8.308
22.58,8.264
22.584,8.272
22.588,8.328
22.592,8.372
22.596,8.348
22.6,8.34
22.604,8.364
22.608,8.396
22.612,8.424
22.616,8.42
22.62,8.4
22.624,8.444
22.628,8.46
22.632,8.464
22.636,8.484
22.64,8.552
22.644,8.608
22.648,8.604
22.652,8.672
22.656,8.764
22.66,8.76
22.664,8.8
22.668,8.856
22.672,8.936
22.676,8.992
22.68,9.044
22.684,9.136
22.688,9.208
22.692,9.236
22.696,9.236
22.7,9.296
22.704,9.328
22.708,9.368
22.712,9.384
22.716,9.376
22.72,9.368
22.724,9.368
22.728,9.312
22.732,9.188
22.736,9.096
22.74,9.016
22.744,8.92
22.748,8.86
22.752,8.716
22.756,8.632
22.76,8.528
22.764,8.416
22.768,8.364
22.772,8.364
22.776,8.296
22.78,8.268
22.784,8.22
22.788,8.172
22.792,8.2
22.796,8.152
22.8,8.164
22.804,8.164
22.808,8.144
22.812,8.188
22.816,8.12
22.82,8.156
22.824,8.164
22.828,8.14
22.832,8.104
22.836,8.092
22.84,8.14
22.844,8.148
22.848,8.144
22.852,8.136
22.856,8.148
22.86,8.196
22.864,8.168
22.868,8.14
22.872,8.156
22.876,8.18
22.88,8.16
22.884,8.128
22.888,8.132
22.892,8.148
22.896,8.112
22.9,8.144
22.904,8.164
22.908,8.168
22.912,8.132
22.916,8.136
22.92,8.148
22.924,8.156
22.928,8.136
22.932,8.116
22.936,8.1
22.94,8.172
22.944,8.156
22.948,8.104
22.952,8.092
22.956,8.144
22.96,8.12
22.964,8.084
22.968,8.08
22.972,8.12
22.976,8.124
22.98,8.104
22.984,8.088
22.988,8.072
22.992,8.068
22.996,8.092
23,8.164
23.004,8.184
23.008,8.16
23.012,8.104
23.016,8.016
23.02,8.032
23.024,8.036
23.028,8.048
23.032,8.064
23.036,8.068
23.04,8.14
23.044,8.124
23.048,8.064
23.052,8.06
23.056,8.08
23.06,8.096
23.064,8.06
23.068,8.08
23.072,8.108
23.076,8.18
23.08,8.188
23.084,8.172
23.088,8.192
23.092,8.368
23.096,8.368
23.1,8.244
23.104,8.212
23.108,8.224
23.112,8.264
23.116,8.296
23.12,8.252
23.124,8.348
23.128,8.412
23.132,8.348
23.136,8.336
23.14,8.284
23.144,8.316
23.148,8.256
23.152,8.188
23.156,8.18
23.16,8.172
23.164,8.136
23.168,8.084
23.172,8.104
23.176,8.108
23.18,8.068
23.184,8.1
23.188,8.124
23.192,8.12
23.196,8.124
23.2,8.128
23.204,8.18
23.208,8.208
23.212,8.076
23.216,8.016
23.22,8.044
23.224,8.04
23.228,8.076
23.232,8.032
23.236,8.072
23.24,8.184
23.244,8.112
23.248,8.052
23.252,8.08
23.256,8.164
23.26,8.168
23.264,8.076
23.268,8.1
23.272,8.004
23.276,8.028
23.28,8.128
23.284,8.304
23.288,8.764
23.292,9.412
23.296,10.148
23.3,11.172
23.304,11.608
23.308,10.648
23.312,9.728
23.316,9.168
23.32,8.632
23.324,8.264
23.328,7.812
23.332,7.752
23.336,7.956
23.34,8.148
23.344,8.344
23.348,8.38
23.352,8.36
23.356,8.24
23.36,8.216
23.364,8.256
23.368,8.312
23.372,8.332
23.376,8.408
23.38,8.34
23.384,8.344
23.388,8.28
23.392,8.312
23.396,8.264
23.4,8.256
23.404,8.412
23.408,8.464
23.412,8.448
23.416,8.412
23.42,8.364
23.424,8.396
23.428,8.372
23.432,8.448
23.436,8.456
23.44,8.412
23.444,8.376
23.448,8.364
23.452,8.428
23.456,8.468
23.46,8.564
23.464,8.624
23.468,8.6
23.472,8.696
23.476,8.688
23.48,8.532
23.484,8.604
23.488,8.784
23.492,8.768
23.496,8.712
23.5,8.72
23.504,8.84
23.508,8.932
23.512,8.924
23.516,8.948
23.52,9.064
23.524,9.216
23.528,9.076
23.532,9.06
23.536,9.412
23.54,9.416
23.544,9.392
23.548,9.392
23.552,9.48
23.556,9.572
23.56,9.66
23.564,9.704
23.568,9.64
23.572,9.584
23.576,9.512
23.58,9.424
23.584,9.332
23.588,9.368
23.592,9.336
23.596,9.188
23.6,9.056
23.604,8.832
23.608,8.804
23.612,8.724
23.616,8.736
23.62,8.628
23.624,8.52
23.628,8.344
23.632,8.476
23.636,8.256
23.64,8.36
23.644,8.32
23.648,8.276
23.652,8.388
23.656,8.396
23.66,8.444
23.664,8.4
23.668,8.44
23.672,8.496
23.676,8.6
23.68,8.6
23.684,8.544
23.688,8.572
23.692,8.588
23.696,8.564
23.7,8.572
23.704,8.736
23.708,8.872
23.712,8.652
23.716,8.588
23.72,8.604
23.724,8.724
23.728,8.872
23.732,8.756
23.736,8.604
23.74,8.656
23.744,8.568
23.748,8.54
23.752,8.624
23.756,8.688
23.76,8.772
23.764,8.712
23.768,8.748
23.772,8.648
23.776,8.664
23.78,8.588
23.784,8.524
23.788,8.588
23.792,8.56
23.796,8.456
23.8,8.52
23.804,8.548
23.808,8.616
23.812,8.612
23.816,8.48
23.82,8.388
23.824,8.5
23.828,8.58
23.832,8.636
23.836,8.576
23.84,8.584
23.844,8.46
23.848,8.408
23.852,8.324
23.856,8.468
23.86,8.516
23.864,8.42
23.868,8.38
23.872,8.524
23.876,8.452
23.88,8.396
23.884,8.376
23.888,8.328
23.892,8.376
23.896,8.46
23.9,8.388
23.904,8.38
23.908,8.304
23.912,8.344
23.916,8.38
23.92,8.576
23.924,8.544
23.928,8.312
23.932,8.32
23.936,8.44
23.94,8.488
23.944,8.512
23.948,8.476
23.952,8.46
23.956,8.548
23.96,8.676
23.964,8.604
23.968,8.692
23.972,8.692
23.976,8.752
23.98,8.684
23.984,8.584
23.988,8.496
23.992,8.604
23.996,8.492
24,8.492
24.004,8.62
24.008,8.5
24.012,8.24
24.016,8.136
24.02,8.22
24.024,8.328
24.028,8.32
24.032,8.268
24.036,8.332
24.04,8.392
24.044,8.412
24.048,8.316
24.052,8.372
24.056,8.388
24.06,8.348
24.064,8.292
24.068,8.292
24.072,8.364
24.076,8.36
24.08,8.36
24.084,8.344
24.088,8.332
24.092,8.344
24.096,8.292
24.1,8.32
24.104,8.368
24.108,8.34
24.112,8.324
24.116,8.284
24.12,8.248
24.124,8.244
24.128,8.328
24.132,8.572
24.136,8.984
24.14,9.648
24.144,10.364
24.148,11.224
24.152,11.856
24.156,10.852
24.16,10.096
24.164,9.492
24.168,8.916
24.172,8.54
24.176,8.16
24.18,7.968
24.184,8.064
24.188,8.28
24.192,8.392
24.196,8.424
24.2,8.428
24.204,8.456
24.208,8.456
24.212,8.46
24.216,8.448
24.22,8.488
24.224,8.464
24.228,8.436
24.232,8.448
24.236,8.444
24.24,8.5
24.244,8.5
24.248,8.484
24.252,8.476
24.256,8.492
24.26,8.496
24.264,8.412
24.268,8.468
24.272,8.504
24.276,8.344
24.28,8.192
24.284,8.22
24.288,8.276
24.292,8.256
24.296,8.244
24.3,8.328
24.304,8.384
24.308,8.488
24.312,8.504
24.316,8.492
24.32,8.576
24.324,8.672
24.328,8.684
24.332,8.652
24.336,8.412
24.34,8.316
24.344,8.536
24.348,8.54
24.352,8.7
24.356,8.968
24.36,9.068
24.364,8.9
24.368,8.976
24.372,9.072
24.376,9.216
24.38,9.216
24.384,9.132
24.388,9.248
24.392,9.448
24.396,9.48
24.4,8.988
24.404,8.992
24.408,9.384
24.412,9.552
24.416,9.664
24.42,9.664
24.424,9.704
24.428,9.756
24.432,9.684
24.436,9.604
24.44,9.556
24.444,9.468
24.448,9.288
24.452,9.364
24.456,9.52
24.46,9.372
24.464,9.388
24.468,9.128
24.472,9.112
24.476,8.92
24.48,8.984
24.484,8.848
24.488,8.76
24.492,8.716
24.496,8.684
24.5,8.656
24.504,8.56
24.508,8.6
24.512,8.528
24.516,8.424
24.52,8.364
24.524,8.204
24.528,8.212
24.532,8.34
24.536,8.416
24.54,8.452
24.544,8.332
24.548,8.316
24.552,8.044
24.556,8.376
24.56,8.472
24.564,8.428
24.568,8.236
24.572,8.048
24.576,8.148
24.58,8.052
24.584,8.1
24.588,7.98
24.592,7.96
24.596,7.856
24.6,7.888
24.604,7.756
24.608,7.784
24.612,7.98
24.616,7.764
24.62,7.864
24.624,7.908
24.628,7.928
24.632,7.912
24.636,7.896
24.64,8
24.644,7.92
24.648,7.788
24.652,7.752
24.656,7.856
24.66,8.012
24.664,7.94
24.668,7.972
24.672,8.004
24.676,8.044
24.68,8.028
24.684,8.024
24.688,8.048
24.692,8.092
24.696,8.156
24.7,8.152
24.704,8.292
24.708,8.272
24.712,8.344
24.716,8.336
24.72,8.404
24.724,8.464
24.728,8.492
24.732,8.448
24.736,8.46
24.74,8.58
24.744,8.572
24.748,8.588
24.752,8.6
24.756,8.6
24.76,8.556
24.764,8.508
24.768,8.576
24.772,8.568
24.776,8.524
24.78,8.48
24.784,8.4
24.788,8.428
24.792,8.352
24.796,8.34
24.8,8.264
24.804,8.356
24.808,8.456
24.812,8.348
24.816,8.176
24.82,8.096
24.824,8.296
24.828,8.364
24.832,8.16
24.836,7.788
24.84,7.58
24.844,7.608
24.848,7.556
24.852,7.668
24.856,7.64
24.86,7.748
24.864,7.904
24.868,7.94
24.872,7.98
24.876,8.16
24.88,8.14
24.884,8.124
24.888,7.96
24.892,7.924
24.896,7.84
24.9,7.84
24.904,8.008
24.908,8.008
24.912,7.94
24.916,8.064
24.92,8.164
24.924,8.06
24.928,8.36
24.932,8.3
24.936,8.24
24.94,8.148
24.944,8.34
24.948,8.716
24.952,9.36
24.956,10
24.96,10.816
24.964,11.432
24.968,10.62
24.972,9.72
24.976,9.148
24.98,8.68
24.984,8.312
24.988,8.032
24.992,7.896
24.996,7.808
25,7.864
25.004,7.988
25.008,8.032
25.012,8.156
25.016,8.068
25.02,8.064
25.024,8.072
25.028,8.068
25.032,8.06
25.036,8.148
25.04,8.156
25.044,8.244
25.048,8.256
25.052,8.208
25.056,8.172
25.06,8.216
25.064,8.256
25.068,8.292
25.072,8.388
25.076,8.5
25.08,8.576
25.084,8.568
25.088,8.512
25.092,8.584
25.096,8.64
25.1,8.504
25.104,8.66
25.108,8.692
25.112,8.644
25.116,8.612
25.12,8.604
25.124,8.628
25.128,8.66
25.132,8.64
25.136,8.672
25.14,8.732
25.144,8.692
25.148,8.676
25.152,8.66
25.156,8.712
25.16,8.816
25.164,8.9
25.168,8.936
25.172,8.892
25.176,8.96
25.18,9.072
25.184,8.972
25.188,9.024
25.192,9.14
25.196,9.156
25.2,9.164
25.204,9.192
25.208,9.244
25.212,9.3
25.216,9.312
25.22,9.336
25.224,9.376
25.228,9.372
25.232,9.296
25.236,9.276
25.24,9.22
25.244,9.152
25.248,9.032
25.252,8.932
25.256,8.868
25.26,8.78
25.264,8.688
25.268,8.576
25.272,8.5
25.276,8.416
25.28,8.308
25.284,8.252
25.288,8.28
25.292,8.288
25.296,8.188
25.3,8.172
25.304,8.172
25.308,8.192
25.312,8.072
25.316,8.108
25.32,8.144
25.324,8.164
25.328,8.148
25.332,8.112
25.336,8.088
25.34,8.1
25.344,8.12
25.348,8.136
25.352,8.096
25.356,8.132
25.36,8.124
25.364,8.108
25.368,8.092
25.372,8.192
25.376,8.248
25.38,8.144
25.384,8.104
25.388,8.164
25.392,8.212
25.396,8.12
25.4,8.076
25.404,8.116
25.408,8.136
25.412,8.208
25.416,8.156
25.42,8.228
25.424,8.44
25.428,8.468
25.432,8.28
25.436,8.012
25.44,7.964
25.444,8.116
25.448,8.22
25.452,8.232
25.456,8.084
25.46,8.032
25.464,7.992
25.468,8.076
25.472,8.272
25.476,8.336
25.48,8.256
25.484,8.004
25.488,8.08
25.492,8.484
25.496,8.472
25.5,8.188
25.504,8.044
25.508,8.168
25.512,8.292
25.516,8.288
25.52,8.22
25.524,8.18
25.528,8.16
25.532,8.244
25.536,8.288
25.54,8.308
25.544,8.336
25.548,8.34
25.552,8.3
25.556,8.408
25.56,8.444
25.564,8.492
25.568,8.496
25.572,8.46
25.576,8.572
25.58,8.572
25.584,8.416
25.588,8.452
25.592,8.432
25.596,8.34
25.6,8.332
25.604,8.308
25.608,8.296
25.612,8.268
25.616,8.204
25.62,8.224
25.624,8.188
25.628,8.148
25.632,8.148
25.636,7.936
25.64,7.876
25.644,7.956
25.648,7.884
25.652,7.868
25.656,7.892
25.66,7.924
25.664,7.896
25.668,7.888
25.672,7.856
25.676,7.848
25.68,7.856
25.684,7.7
25.688,7.856
25.692,8.076
25.696,7.884
25.7,7.688
25.704,7.824
25.708,7.72
25.712,7.82
25.716,7.984
25.72,7.828
25.724,7.764
25.728,7.588
25.732,7.704
25.736,8.1
25.74,8.548
25.744,9.124
25.748,9.972
25.752,10.88
25.756,10.896
25.76,9.896
25.764,9.096
25.768,8.488
25.772,8
25.776,7.628
25.78,7.236
25.784,7.18
25.788,7.504
25.792,7.788
25.796,7.664
25.8,7.716
25.804,7.816
25.808,7.628
25.812,7.556
25.816,7.38
25.82,7.248
25.824,7.304
25.828,7.436
25.832,7.464
25.836,7.324
25.84,7.368
25.844,7.248
25.848,7.344
25.852,7.456
25.856,7.792
25.86,7.62
25.864,7.564
25.868,7.388
25.872,7.528
25.876,7.72
25.88,7.828
25.884,7.932
25.888,7.956
25.892,7.944
25.896,8.08
25.9,8.132
25.904,8.216
25.908,8.252
25.912,8.184
25.916,8.488
25.92,8.608
25.924,8.212
25.928,7.94
25.932,7.908
25.936,8.112
25.94,8.216
25.944,8.4
25.948,8.528
25.952,8.72
25.956,8.376
25.96,8.312
25.964,8.44
25.968,8.508
25.972,8.708
25.976,8.876
25.98,8.908
25.984,8.696
25.988,8.82
25.992,8.992
25.996,8.824
26,8.908
26.004,8.964
26.008,9.044
26.012,9.328
26.016,9.368
26.02,9.376
26.024,9.028
26.028,8.932
26.032,9.184
26.036,9.34
26.04,9.476
26.044,9.068
26.048,8.248
26.052,8.112
26.056,8.22
26.06,8.444
26.064,8.652
26.068,8.696
26.072,8.232
26.076,7.968
26.08,8.072
26.084,8.312
26.088,8.528
26.092,8.32
26.096,8
26.1,7.892
26.104,7.976
26.108,8.324
26.112,8.228
26.116,8.008
26.12,8.004
26.124,8.016
26.128,8.18
26.132,7.96
26.136,7.824
26.14,7.956
26.144,8.204
26.148,8.232
26.152,7.964
26.156,7.988
26.16,8.248
26.164,8.324
26.168,7.948
26.172,7.88
26.176,8.172
26.18,8.356
26.184,8.292
26.188,7.888
26.192,7.96
26.196,8.008
26.2,8.08
26.204,8.212
26.208,8.248
26.212,8.208
26.216,8.156
26.22,7.984
26.224,8.26
26.228,7.96
26.232,7.984
26.236,8.068
26.24,8.18
26.244,8.016
26.248,8.128
26.252,8.112
26.256,7.836
26.26,7.812
26.264,7.864
26.268,7.876
26.272,7.9
26.276,7.884
26.28,7.856
26.284,7.86
26.288,7.828
26.292,7.812
26.296,7.852
26.3,7.9
26.304,7.872
26.308,7.972
26.312,7.956
26.316,7.928
26.32,7.96
26.324,7.968
26.328,8.056
26.332,7.948
26.336,7.992
26.34,8.02
26.344,8.008
26.348,8.204
26.352,8.272
26.356,8.22
26.36,7.924
26.364,8.004
26.368,8.296
26.372,8.396
26.376,8.176
26.38,7.832
26.384,7.712
26.388,7.78
26.392,7.912
26.396,7.752
26.4,7.768
26.404,7.74
26.408,7.872
26.412,7.856
26.416,7.796
26.42,7.864
26.424,7.696
26.428,7.892
26.432,7.616
26.436,8.036
26.44,8.144
26.444,7.852
26.448,7.656
26.452,7.724
26.456,7.544
26.46,7.86
26.464,7.8
26.468,7.868
26.472,7.612
26.476,7.544
26.48,7.796
26.484,7.636
26.488,7.6
26.492,7.612
26.496,7.752
26.5,7.756
26.504,7.644
26.508,7.656
26.512,7.88
26.516,8.132
26.52,8.472
26.524,9.18
26.528,10.072
26.532,11.008
26.536,10.26
26.54,9.324
26.544,8.748
26.548,8.388
26.552,8.06
26.556,7.516
26.56,7.324
26.564,7.36
26.568,7.572
26.572,7.532
26.576,7.652
26.58,7.676
26.584,7.744
26.588,7.68
26.592,7.492
26.596,7.612
26.6,7.848
26.604,7.896
26.608,7.852
26.612,7.692
26.616,7.696
26.62,7.768
26.624,7.644
26.628,7.768
26.632,7.708
26.636,7.54
26.64,7.672
26.644,7.944
26.648,7.968
26.652,7.796
26.656,7.748
26.66,7.896
26.664,7.82
26.668,7.676
26.672,7.8
26.676,7.952
26.68,7.912
26.684,7.852
26.688,7.68
26.692,7.62
26.696,7.712
26.7,8.088
26.704,8.36
26.708,8.224
26.712,7.992
26.716,7.74
26.72,7.708
26.724,7.94
26.728,8.048
26.732,7.916
26.736,7.984
26.74,8.012
26.744,8.196
26.748,8.54
26.752,8.308
26.756,8.368
26.76,8.416
26.764,8.404
26.768,8.36
26.772,8.44
26.776,8.56
26.78,8.74
26.784,8.632
26.788,8.496
26.792,8.704
26.796,8.744
26.8,8.704
26.804,8.652
26.808,8.54
26.812,8.484
26.816,8.548
26.82,8.28
26.824,8.3
26.828,8.496
26.832,8.136
26.836,7.92
26.84,7.708
26.844,7.82
26.848,7.804
26.852,7.748
26.856,7.676
26.86,7.744
26.864,7.856
26.868,7.668
26.872,7.576
26.876,7.576
26.88,7.58
26.884,7.68
26.888,7.724
26.892,7.628
26.896,7.676
26.9,7.568
26.904,7.452
26.908,7.46
26.912,7.68
26.916,7.712
26.92,7.66
26.924,7.732
26.928,7.516
26.932,7.572
26.936,7.556
26.94,7.648
26.944,7.484
26.948,7.4
26.952,7.428
26.956,7.444
26.96,7.556
26.964,7.516
26.968,7.428
26.972,7.504
26.976,7.528
26.98,7.148
26.984,7.6
26.988,7.536
26.992,7.508
26.996,7.892
27,7.712
27.004,7.756
27.008,7.584
27.012,7.604
27.016,7.624
27.02,7.528
27.024,7.712
27.028,7.788
27.032,7.604
27.036,7.492
27.04,7.656
27.044,7.568
27.048,7.216
27.052,7.32
27.056,7.64
27.06,7.772
27.064,7.58
27.068,7.6
27.072,7.636
27.076,7.644
27.08,7.52
27.084,7.496
27.088,7.448
27.092,7.356
27.096,7.84
27.1,7.672
27.104,7.896
27.108,7.776
27.112,7.704
27.116,7.796
27.12,7.964
27.124,7.896
27.128,8.088
27.132,7.988
27.136,7.948
27.14,7.932
27.144,7.8
27.148,7.992
27.152,7.784
27.156,7.776
27.16,7.692
27.164,7.744
27.168,7.776
27.172,7.792
27.176,7.576
27.18,7.656
27.184,7.788
27.188,7.632
27.192,7.448
27.196,7.68
27.2,8.06
27.204,7.896
27.208,7.664
27.212,7.712
27.216,7.912
27.22,7.948
27.224,7.936
27.228,8.12
27.232,7.864
27.236,8.092
27.24,7.896
27.244,7.936
27.248,8.108
27.252,7.996
27.256,7.988
27.26,8.068
27.264,8.032
27.268,7.768
27.272,7.808
27.276,7.92
27.28,8.3
27.284,8.8
27.288,9.224
27.292,9.936
27.296,10.712
27.3,10.804
27.304,9.8
27.308,9.3
27.312,8.82
27.316,8.32
27.32,7.988
27.324,7.408
27.328,7.328
27.332,7.552
27.336,7.932
27.34,7.948
27.344,7.816
27.348,7.86
27.352,7.704
27.356,7.768
27.36,7.732
27.364,7.668
27.368,7.804
27.372,7.772
27.376,7.636
27.38,7.58
27.384,7.512
27.388,7.512
27.392,7.432
27.396,7.66
27.4,7.7
27.404,7.668
27.408,7.568
27.412,7.604
27.416,7.624
27.42,7.576
27.424,7.692
27.428,7.892
27.432,7.8
27.436,7.804
27.44,7.836
27.444,7.916
27.448,7.844
27.452,7.892
27.456,7.96
27.46,8.168
27.464,8.124
27.468,8.096
27.472,8.144
27.476,8.188
27.48,8.208
27.484,8.268
27.488,8.292
27.492,8.424
27.496,8.428
27.5,8.432
27.504,8.52
27.508,8.608
27.512,8.616
27.516,8.66
27.52,8.668
27.524,8.816
27.528,8.796
27.532,8.804
27.536,8.828
27.54,8.876
27.544,9.068
27.548,9.212
27.552,9.192
27.556,9.132
27.56,9.184
27.564,9.188
27.568,9.248
27.572,9.264
27.576,9.168
27.58,9.1
27.584,9.02
27.588,9.104
27.592,8.844
27.596,8.66
27.6,8.512
27.604,8.372
27.608,8.388
27.612,8.404
27.616,8.304
27.62,8.276
27.624,8.396
27.628,8.48
27.632,8.38
27.636,8.316
27.64,8.3
27.644,8.276
27.648,8.192
27.652,8.004
27.656,8.108
27.66,8.128
27.664,8
27.668,8.012
27.672,7.976
27.676,8.036
27.68,8.032
27.684,7.952
27.688,8.004
27.692,8.036
27.696,8.016
27.7,8.04
27.704,8.116
27.708,8.096
27.712,7.932
27.716,7.856
27.72,7.836
27.724,7.876
27.728,7.88
27.732,7.904
27.736,7.864
27.74,7.952
27.744,7.964
27.748,7.96
27.752,8.04
27.756,8.176
27.76,8.028
27.764,7.972
27.768,7.96
27.772,7.964
27.776,7.968
27.78,8.02
27.784,8.1
27.788,8.284
27.792,8.236
27.796,8.188
27.8,7.96
27.804,7.86
27.808,7.848
27.812,8.068
27.816,8.26
27.82,8.148
27.824,8.068
27.828,8.092
27.832,8.148
27.836,8.152
27.84,8.108
27.844,8.104
27.848,7.836
27.852,7.78
27.856,7.86
27.86,8.468
27.864,8.904
27.868,8.436
27.872,8.08
27.876,8.14
27.88,8.228
27.884,8.288
27.888,8.08
27.892,7.944
27.896,7.796
27.9,7.852
27.904,7.648
27.908,7.792
27.912,8.064
27.916,8.52
27.92,8.22
27.924,7.668
27.928,7.72
27.932,8.096
27.936,8.172
27.94,7.996
27.944,7.66
27.948,7.496
27.952,7.996
27.956,8.416
27.96,7.728
27.964,7.832
27.968,7.94
27.972,8.108
27.976,7.868
27.98,7.588
27.984,7.652
27.988,7.752
27.992,7.744
27.996,7.664
28,7.836
28.004,7.968
28.008,7.808
28.012,7.552
28.016,7.684
28.02,7.696
28.024,7.996
28.028,8.448
28.032,9.476
28.036,10.524
28.04,10.824
28.044,10.656
28.048,9.552
28.052,8.84
28.056,8.412
28.06,8.004
28.064,7.732
28.068,7.74
28.072,7.716
28.076,7.68
28.08,7.86
28.084,7.88
28.088,7.804
28.092,7.852
28.096,8.048
28.1,8.132
28.104,8.1
28.108,7.956
28.112,7.948
28.116,7.836
28.12,7.804
28.124,8.052
28.128,8.112
28.132,7.84
28.136,7.828
28.14,7.964
28.144,7.984
28.148,7.988
28.152,7.904
28.156,7.988
28.16,8.124
28.164,8.004
28.168,7.988
28.172,7.976
28.176,8.016
28.18,8.232
28.184,8.052
28.188,8.064
28.192,8.204
28.196,8.036
28.2,8.044
28.204,8.1
28.208,8.2
28.212,8.252
28.216,8.1
28.22,8.188
28.224,8.388
28.228,8.38
28.232,8.296
28.236,8.316
28.24,8.46
28.244,8.536
28.248,8.512
28.252,8.576
28.256,8.672
28.26,8.672
28.264,8.712
28.268,8.792
28.272,8.852
28.276,8.94
28.28,8.96
28.284,9
28.288,9.056
28.292,9.132
28.296,9.124
28.3,9.06
28.304,9.18
28.308,9.136
28.312,9.068
28.316,8.956
28.32,8.944
28.324,8.856
28.328,8.776
28.332,8.628
28.336,8.536
28.34,8.48
28.344,8.424
28.348,8.344
28.352,8.228
28.356,8.228
28.36,8.212
28.364,8.148
28.368,8.096
28.372,8.06
28.376,8.052
28.38,8.088
28.384,8.044
28.388,8.004
28.392,8.084
28.396,8.032
28.4,7.98
28.404,7.996
28.408,8.072
28.412,8.016
28.416,7.956
28.42,7.968
28.424,7.964
28.428,7.992
28.432,7.972
28.436,7.952
28.44,8
28.444,8.008
28.448,7.948
28.452,7.952
28.456,7.952
28.46,7.944
28.464,7.996
28.468,8.064
28.472,8.188
28.476,8.076
28.48,7.976
28.484,7.936
28.488,7.964
28.492,8.1
28.496,8.12
28.5,7.944
28.504,7.884
28.508,7.932
28.512,7.932
28.516,7.952
28.52,7.948
28.524,7.948
28.528,8.072
28.532,8.192
28.536,8.228
28.54,8.128
28.544,7.892
28.548,7.776
28.552,7.792
28.556,7.916
28.56,7.956
28.564,7.904
28.568,8.02
28.572,8.072
28.576,8.148
28.58,8.124
28.584,8.092
28.588,8.084
28.592,8.136
28.596,8.2
28.6,8.236
28.604,8.24
28.608,8.308
28.612,8.264
28.616,8.248
28.62,8.204
28.624,8.204
28.628,8.204
28.632,8.224
28.636,8.156
28.64,8.132
28.644,8.16
28.648,8.06
28.652,8.012
28.656,7.968
28.66,7.912
28.664,7.828
28.668,7.804
28.672,7.812
28.676,7.848
28.68,7.832
28.684,7.796
28.688,7.832
28.692,7.788
28.696,7.824
28.7,7.792
28.704,7.76
28.708,7.784
28.712,7.78
28.716,7.764
28.72,7.72
28.724,7.74
28.728,7.74
28.732,7.632
28.736,7.684
28.74,7.924
28.744,7.916
28.748,7.788
28.752,7.688
28.756,7.66
28.76,7.556
28.764,7.532
28.768,7.768
28.772,8.08
28.776,8.424
28.78,8.936
28.784,9.552
28.788,10.468
28.792,10.876
28.796,9.884
28.8,9.116
28.804,8.68
28.808,8.232
28.812,7.776
28.816,7.416
28.82,7.288
28.824,7.396
28.828,7.672
28.832,7.876
28.836,7.932
28.84,7.924
28.844,7.884
28.848,7.812
28.852,7.636
28.856,7.692
28.86,7.828
28.864,7.828
28.868,7.664
28.872,7.712
28.876,7.756
28.88,7.724
28.884,7.756
28.888,7.88
28.892,7.908
28.896,7.824
28.9,7.792
28.904,7.708
28.908,7.776
28.912,7.78
28.916,7.712
28.92,7.688
28.924,7.704
28.928,7.636
28.932,7.636
28.936,7.728
28.94,7.84
28.944,7.868
28.948,7.792
28.952,7.764
28.956,7.756
28.96,7.768
28.964,7.764
28.968,7.78
28.972,7.836
28.976,7.864
28.98,8.044
28.984,8.028
28.988,8.148
28.992,8.264
28.996,8.404
29,8.24
29.004,8.096
29.008,8.216
29.012,8.324
29.016,8.404
29.02,8.476
29.024,8.608
29.028,8.716
29.032,8.668
29.036,8.688
29.04,8.776
29.044,8.724
29.048,8.84
29.052,8.972
29.056,8.808
29.06,8.744
29.064,8.664
29.068,8.56
29.072,8.492
29.076,8.432
29.08,8.36
29.084,8.232
29.088,8.204
29.092,8.176
29.096,8.236
29.1,7.984
29.104,7.916
29.108,7.964
29.112,8.016
29.116,8.076
29.12,7.812
29.124,7.788
29.128,7.688
29.132,7.692
29.136,7.728
29.14,7.764
29.144,7.768
29.148,7.784
29.152,7.784
29.156,7.86
29.16,7.868
29.164,7.836
29.168,7.828
29.172,7.884
29.176,7.928
29.18,7.88
29.184,7.852
29.188,7.856
29.192,7.932
29.196,7.92
29.2,7.804
29.204,7.84
29.208,7.912
29.212,7.984
29.216,7.98
29.22,7.892
29.224,7.944
29.228,7.824
29.232,7.768
29.236,7.808
29.24,7.884
29.244,7.892
29.248,7.88
29.252,7.836
29.256,7.884
29.26,7.972
29.264,7.72
29.268,7.82
29.272,7.86
29.276,7.92
29.28,7.984
29.284,7.908
29.288,7.9
29.292,7.744
29.296,7.748
29.3,7.912
29.304,8
29.308,7.972
29.312,7.9
29.316,7.904
29.32,7.936
29.324,7.996
29.328,8.044
29.332,8.016
29.336,8.056
29.34,8.148
29.344,8.176
29.348,8.088
29.352,8.088
29.356,8.144
29.36,8.192
29.364,8.096
29.368,8.072
29.372,8.064
29.376,8.052
29.38,7.92
29.384,7.856
29.388,8.112
29.392,8.052
29.396,7.932
29.4,7.8
29.404,7.724
29.408,7.808
29.412,7.776
29.416,7.736
29.42,7.772
29.424,7.636
29.428,7.72
29.432,7.704
29.436,7.696
29.44,7.708
29.444,7.788
29.448,7.66
29.452,7.732
29.456,7.832
29.46,7.864
29.464,7.692
29.468,7.676
29.472,7.84
29.476,7.872
29.48,7.724
29.484,7.64
29.488,7.656
29.492,7.752
29.496,7.712
29.5,7.68
29.504,7.7
29.508,7.7
29.512,7.776
29.516,8.048
29.52,8.464
29.524,9.06
29.528,9.808
29.532,10.632
29.536,10.572
29.54,9.652
29.544,9.1
29.548,8.656
29.552,8.1
29.556,7.796
29.56,7.536
29.564,7.456
29.568,7.532
29.572,7.656
29.576,7.756
29.58,7.792
29.584,7.832
29.588,7.928
29.592,7.96
29.596,7.872
29.6,7.772
29.604,7.82
29.608,7.896
29.612,7.94
29.616,7.896
29.62,7.888
29.624,7.96
29.628,7.992
29.632,7.936
29.636,7.944
29.64,8.036
29.644,8.024
29.648,7.98
29.652,7.984
29.656,8.052
29.66,8.06
29.664,8.036
29.668,8.016
29.672,8.064
29.676,8.14
29.68,8.068
29.684,8.072
29.688,8.108
29.692,8.14
29.696,8.136
29.7,8.164
29.704,8.188
29.708,8.232
29.712,8.284
29.716,8.228
29.72,8.268
29.724,8.356
29.728,8.372
29.732,8.384
29.736,8.376
29.74,8.484
29.744,8.604
29.748,8.592
29.752,8.612
29.756,8.716
29.76,8.712
29.764,8.752
29.768,8.816
29.772,8.888
29.776,8.964
29.78,8.984
29.784,9.036
29.788,9.2
29.792,9.244
29.796,9.196
29.8,9.176
29.804,9.26
29.808,9.156
29.812,9.104
29.816,8.988
29.82,8.892
29.824,8.844
29.828,8.74
29.832,8.672
29.836,8.544
29.84,8.652
29.844,8.54
29.848,8.484
29.852,8.32
29.856,8.296
29.86,8.28
29.864,8.252
29.868,8.228
29.872,8.196
29.876,8.148
29.88,8.152
29.884,8.116
29.888,8.108
29.892,8.1
29.896,8.076
29.9,8.036
29.904,8.064
29.908,8.276
29.912,8.22
29.916,8.136
29.92,8.128
29.924,8.148
29.928,8.136
29.932,8.128
29.936,8.172
29.94,8.244
29.944,8.168
29.948,8.088
29.952,8.136
29.956,8.18
29.96,8.252
29.964,8.224
29.968,8.176
29.972,8.092
29.976,8.072
29.98,8.076
29.984,8.16
29.988,8.352
29.992,8.48
29.996,8.396
30,8.18
30.004,8.024
30.008,8.116
30.012,8.172
30.016,8.196
30.02,8.116
30.024,8.06
30.028,8.056
30.032,8.072
30.036,8.092
30.04,8.144
30.044,8.172
30.048,8.092
30.052,8.12
30.056,8.172
30.06,8.324
30.064,8.288
30.068,8.1
30.072,8.156
30.076,8.22
30.08,8.224
30.084,8.256
30.088,8.392
30.092,8.44
30.096,8.256
30.1,8.156
30.104,8.232
30.108,8.424
30.112,8.348
30.116,8.18
30.12,8.052
30.124,8.072
30.128,8.18
30.132,8.204
30.136,8.092
30.14,8.152
30.144,8.144
30.148,7.928
30.152,7.828
30.156,7.916
30.16,7.996
30.164,7.864
30.168,7.876
30.172,7.976
30.176,7.936
30.18,7.888
30.184,7.876
30.188,7.784
30.192,7.836
30.196,7.94
30.2,8.04
30.204,7.952
30.208,7.936
30.212,7.84
30.216,7.808
30.22,7.972
30.224,7.968
30.228,7.804
30.232,7.8
30.236,7.944
30.24,7.964
30.244,7.848
30.248,7.812
30.252,7.836
30.256,7.952
30.26,8.268
30.264,8.716
30.268,9.356
30.272,10.088
30.276,10.912
30.28,10.508
30.284,9.608
30.288,9.06
30.292,8.624
30.296,8.108
30.3,7.784
30.304,7.5
30.308,7.492
30.312,7.64
30.316,7.744
30.32,7.888
30.324,8.064
30.328,8.06
30.332,7.988
30.336,7.984
30.34,8.012
30.344,8.076
30.348,7.944
30.352,7.98
30.356,8.188
30.36,8.116
30.364,8.032
30.368,7.972
30.372,7.996
30.376,8.1
30.38,8.128
30.384,8.116
30.388,8.112
30.392,8.096
30.396,8.08
30.4,8.064
30.404,8.072
30.408,8.1
30.412,8.1
30.416,8.116
30.42,8.06
30.424,8.164
30.428,8.188
30.432,8.132
30.436,8.236
30.44,8.148
30.444,8.12
30.448,8.084
30.452,8.144
30.456,8.252
30.46,8.196
30.464,8.152
30.468,8.228
30.472,8.264
30.476,8.348
30.48,8.376
30.484,8.424
30.488,8.432
30.492,8.56
30.496,8.656
30.5,8.684
30.504,8.748
30.508,8.824
30.512,8.828
30.516,8.836
30.52,8.956
30.524,9.016
30.528,9.028
30.532,9.032
30.536,9.076
30.54,9.052
30.544,9.04
30.548,8.944
30.552,8.888
30.556,8.844
30.56,8.828
30.564,8.668
30.568,8.56
30.572,8.508
30.576,8.448
30.58,8.336
30.584,8.264
30.588,8.2
30.592,8.192
30.596,8.128
30.6,8.036
30.604,8.088
30.608,8.108
30.612,8.032
30.616,8.016
30.62,8.04
30.624,8.044
30.628,8.048
30.632,8.036
30.636,7.964
30.64,8.008
30.644,8.104
30.648,8.068
30.652,8.032
30.656,8.012
30.66,8.016
30.664,8.012
30.668,7.972
30.672,7.976
30.676,8.02
30.68,8.008
30.684,7.952
30.688,8.012
30.692,7.984
30.696,7.956
30.7,7.948
30.704,7.964
30.708,7.992
30.712,7.972
30.716,7.956
30.72,7.988
30.724,7.984
30.728,7.992
30.732,8.008
30.736,7.92
30.74,7.936
30.744,7.968
30.748,7.932
30.752,7.94
30.756,8.012
30.76,7.984
30.764,7.92
30.768,7.888
30.772,7.936
30.776,8.04
30.78,7.98
30.784,7.972
30.788,8.04
30.792,8.108
30.796,8.084
30.8,8.064
30.804,8.044
30.808,8.088
30.812,8.116
30.816,8.136
30.82,8.204
30.824,8.232
30.828,8.192
30.832,8.172
30.836,8.172
30.84,8.168
30.844,8.152
30.848,8.104
30.852,8.076
30.856,8.068
30.86,8.072
30.864,8.004
30.868,7.932
30.872,7.924
30.876,7.952
30.88,7.92
30.884,7.836
30.888,7.932
30.892,7.864
30.896,7.844
30.9,7.832
30.904,7.856
30.908,7.904
30.912,7.892
30.916,7.84
30.92,7.848
30.924,7.872
30.928,7.844
30.932,7.824
30.936,7.848
30.94,7.872
30.944,7.892
30.948,7.832
30.952,7.872
30.956,7.844
30.96,7.892
30.964,7.86
30.968,7.84
30.972,7.876
30.976,7.864
30.98,7.784
30.984,7.744
30.988,7.908
30.992,8.272
30.996,8.696
31,9.356
31.004,10.088
31.008,10.856
31.012,10.608
31.016,9.476
31.02,8.852
31.024,8.496
31.028,8.152
31.032,7.804
31.036,7.52
31.04,7.508
31.044,7.608
31.048,7.816
31.052,7.888
31.056,7.976
31.06,8.012
31.064,7.96
31.068,7.952
31.072,8.008
31.076,8.008
31.08,7.972
31.084,7.972
31.088,8.004
31.092,8.004
31.096,8.012
31.1,7.968
31.104,8.024
31.108,8.028
31.112,8.024
31.116,7.992
31.12,8.012
31.124,8.048
31.128,8.052
31.132,8.04
31.136,8.056
31.14,8.104
31.144,8.108
31.148,8.068
31.152,8.08
31.156,8.128
31.16,8.168
31.164,8.16
31.168,8.152
31.172,8.172
31.176,8.228
31.18,8.216
31.184,8.256
31.188,8.276
31.192,8.284
31.196,8.332
31.2,8.344
31.204,8.376
31.208,8.476
31.212,8.48
31.216,8.492
31.22,8.532
31.224,8.628
31.228,8.672
31.232,8.684
31.236,8.764
31.24,8.832
31.244,8.876
31.248,8.876
31.252,8.928
31.256,8.96
31.26,9.02
31.264,9.012
31.268,9.004
31.272,9.06
31.276,9.056
31.28,8.952
31.284,8.856
31.288,8.816
31.292,8.76
31.296,8.644
31.3,8.524
31.304,8.48
31.308,8.416
31.312,8.332
31.316,8.208
31.32,8.152
31.324,8.152
31.328,8.112
31.332,8.056
31.336,8.012
31.34,8.032
31.344,8.016
31.348,7.972
31.352,7.972
31.356,8.008
31.36,7.972
31.364,7.948
31.368,7.94
31.372,7.984
31.376,7.984
31.38,7.944
31.384,7.928
31.388,7.944
31.392,7.996
31.396,7.956
31.4,7.924
31.404,7.928
31.408,7.996
31.412,7.968
31.416,7.928
31.42,7.944
31.424,7.968
31.428,7.96
31.432,7.932
31.436,7.924
31.44,7.964
31.444,7.988
31.448,7.932
31.452,7.924
31.456,7.94
31.46,7.968
31.464,7.948
31.468,7.92
31.472,7.964
31.476,7.972
31.48,7.892
31.484,7.932
31.488,7.992
31.492,7.92
31.496,8.064
31.5,8.032
31.504,7.904
31.508,7.876
31.512,7.876
31.516,7.856
31.52,7.912
31.524,7.992
31.528,7.912
31.532,7.856
31.536,7.92
31.54,8.008
31.544,8.076
31.548,8.088
31.552,8.056
31.556,8.056
31.56,8.128
31.564,8.212
31.568,8.268
31.572,8.276
31.576,8.24
31.58,8.172
31.584,8.232
31.588,8.284
31.592,8.216
31.596,8.148
31.6,8.152
31.604,8.096
31.608,8.148
31.612,8.1
31.616,8.012
31.62,8.052
31.624,8.052
31.628,7.952
31.632,7.912
31.636,7.996
31.64,8
31.644,7.952
31.648,7.924
31.652,7.924
31.656,7.98
31.66,7.956
31.664,7.88
31.668,7.924
31.672,7.916
31.676,7.912
31.68,7.868
31.684,7.912
31.688,7.916
31.692,7.924
31.696,7.928
31.7,7.864
31.704,7.876
31.708,7.928
31.712,7.916
31.716,7.88
31.72,7.88
31.724,7.904
31.728,7.884
31.732,7.788
31.736,7.748
31.74,7.916
31.744,8.28
31.748,8.652
31.752,9.268
31.756,9.964
31.76,10.796
31.764,10.58
31.768,9.58
31.772,9.012
31.776,8.608
31.78,8.076
31.784,7.636
31.788,7.38
31.792,7.428
31.796,7.6
31.8,7.808
31.804,7.916
31.808,7.968
31.812,7.964
31.816,7.916
31.82,7.9
31.824,7.94
31.828,7.924
31.832,7.888
31.836,7.912
31.84,7.932
31.844,7.94
31.848,7.932
31.852,7.912
31.856,7.948
31.86,7.988
31.864,7.952
31.868,7.94
31.872,7.98
31.876,7.992
31.88,8.012
31.884,7.972
31.888,7.992
31.892,8.036
31.896,8.008
31.9,8.012
31.904,8.056
31.908,8.068
31.912,8.072
31.916,8.052
31.92,8.156
31.924,8.16
31.928,8.196
31.932,8.172
31.936,8.168
31.94,8.204
31.944,8.264
31.948,8.276
31.952,8.284
31.956,8.356
31.96,8.416
31.964,8.408
31.968,8.492
31.972,8.552
31.976,8.624
31.98,8.592
31.984,8.536
31.988,8.664
31.992,8.736
31.996,8.748
32,8.772
32.004,8.864
32.008,8.904
32.012,8.96
32.016,8.96
32.02,8.96
32.024,8.984
32.028,8.98
32.032,8.876
32.036,8.828
32.04,8.792
32.044,8.708
32.048,8.576
32.052,8.496
32.056,8.412
32.06,8.324
32.064,8.26
32.068,8.188
32.072,8.14
32.076,8.084
32.08,8.048
32.084,7.984
32.088,7.952
32.092,7.972
32.096,7.96
32.1,7.936
32.104,7.908
32.108,7.94
32.112,7.908
32.116,7.876
32.12,7.908
32.124,7.924
32.128,7.876
32.132,7.828
32.136,7.84
32.14,7.876
32.144,7.924
32.148,7.896
32.152,7.884
32.156,7.88
32.16,7.9
32.164,7.884
32.168,7.864
32.172,7.888
32.176,7.876
32.18,7.832
32.184,7.856
32.188,7.876
32.192,7.96
32.196,7.944
32.2,7.952
32.204,7.936
32.208,7.884
32.212,7.832
32.216,7.852
32.22,7.82
32.224,7.868
32.228,7.832
32.232,7.828
32.236,7.848
32.24,7.868
32.244,7.864
32.248,7.836
32.252,7.824
32.256,7.868
32.26,7.852
32.264,7.852
32.268,7.792
32.272,7.844
32.276,7.84
32.28,7.828
32.284,7.832
32.288,7.84
32.292,7.876
32.296,7.884
32.3,7.848
32.304,7.916
32.308,8.004
32.312,7.996
32.316,7.944
32.32,7.976
32.324,8.028
32.328,8.08
32.332,8.096
32.336,8.068
32.34,8.096
32.344,8.144
32.348,8.124
32.352,8.092
32.356,8.08
32.36,8.068
32.364,8.016
32.368,7.976
32.372,7.96
32.376,7.96
32.38,7.892
32.384,7.804
32.388,7.8
32.392,7.808
32.396,7.784
32.4,7.744
32.404,7.76
32.408,7.808
32.412,7.784
32.416,7.748
32.42,7.756
32.424,7.76
32.428,7.744
32.432,7.76
32.436,7.748
32.44,7.784
32.444,7.76
32.448,7.748
32.452,7.76
32.456,7.76
32.46,7.792
32.464,7.728
32.468,7.74
32.472,7.748
32.476,7.728
32.48,7.788
32.484,7.784
32.488,7.76
32.492,7.74
32.496,7.684
32.5,7.652
32.504,7.828
32.508,8.208
32.512,8.64
32.516,9.236
32.52,9.952
32.524,10.724
32.528,10.344
32.532,9.38
32.536,8.928
32.54,8.544
32.544,8.024
32.548,7.644
32.552,7.344
32.556,7.412
32.56,7.616
32.564,7.78
32.568,7.884
32.572,7.968
32.576,8.028
32.58,8.044
32.584,7.988
32.588,7.912
32.592,7.948
32.596,7.88
32.6,7.84
32.604,7.824
32.608,7.884
32.612,7.92
32.616,7.904
32.62,7.9
32.624,7.976
32.628,8.056
32.632,7.984
32.636,7.964
32.64,7.98
32.644,7.968
32.648,8.04
32.652,8.016
32.656,8.096
32.66,8.104
32.664,8.012
32.668,7.964
32.672,7.984
32.676,8.032
32.68,8.08
32.684,8.16
32.688,8.188
32.692,8.204
32.696,8.136
32.7,8.14
32.704,8.184
32.708,8.256
32.712,8.252
32.716,8.276
32.72,8.3
32.724,8.376
32.728,8.4
32.732,8.456
32.736,8.444
32.74,8.524
32.744,8.592
32.748,8.6
32.752,8.684
32.756,8.748
32.76,8.772
32.764,8.752
32.768,8.728
32.772,8.832
32.776,8.972
32.78,9.02
32.784,8.96
32.788,8.964
32.792,8.988
32.796,8.908
32.8,8.828
32.804,8.76
32.808,8.704
32.812,8.584
32.816,8.444
32.82,8.388
32.824,8.316
32.828,8.24
32.832,8.164
32.836,8.1
32.84,8.064
32.844,8.036
32.848,7.992
32.852,7.94
32.856,7.964
32.86,7.932
32.864,7.892
32.868,7.852
32.872,7.884
32.876,7.876
32.88,7.816
32.884,7.76
32.888,7.852
32.892,7.872
32.896,7.852
32.9,7.936
32.904,7.888
32.908,7.968
32.912,7.884
32.916,7.816
32.92,7.796
32.924,7.824
32.928,7.844
32.932,7.8
32.936,7.824
32.94,7.896
32.944,7.884
32.948,7.832
32.952,7.804
32.956,7.864
32.96,7.812
32.964,7.716
32.968,7.908
32.972,7.904
32.976,7.888
32.98,7.788
32.984,7.788
32.988,7.884
32.992,7.916
32.996,7.884
33,7.884
33.004,7.828
33.008,7.852
33.012,7.824
33.016,7.792
33.02,7.792
33.024,7.864
33.028,7.888
33.032,7.832
33.036,7.836
33.04,7.872
33.044,7.904
33.048,7.824
33.052,7.804
33.056,7.832
33.06,7.932
33.064,8.004
33.068,7.94
33.072,7.92
33.076,7.768
33.08,7.8
33.084,7.816
33.088,7.9
33.092,7.944
33.096,7.888
33.1,7.872
33.104,7.884
33.108,7.984
33.112,8.04
33.116,8.092
33.12,8.132
33.124,8.084
33.128,8.092
33.132,8.036
33.136,8.064
33.14,8.048
33.144,8.012
33.148,7.952
33.152,7.912
33.156,7.94
33.16,7.94
33.164,7.9
33.168,7.836
33.172,7.892
33.176,7.836
33.18,7.672
33.184,7.78
33.188,7.868
33.192,7.676
33.196,7.772
33.2,7.72
33.204,7.688
33.208,7.684
33.212,7.728
33.216,7.704
33.22,7.668
33.224,7.684
33.228,7.632
33.232,7.68
33.236,7.676
33.24,7.772
33.244,7.764
33.248,7.72
33.252,7.684
33.256,7.668
33.26,7.652
33.264,7.58
33.268,7.648
33.272,7.672
33.276,7.656
33.28,7.676
33.284,7.64
33.288,7.9
33.292,8.408
33.296,8.82
33.3,9.184
33.304,9.476
33.308,10.228
33.312,10.46
33.316,9.532
33.32,9.024
33.324,8.68
33.328,8.192
33.332,7.8
33.336,7.476
33.34,7.304
33.344,7.456
33.348,7.656
33.352,7.776
33.356,7.856
33.36,8.032
33.364,7.904
33.368,7.904
33.372,7.968
33.376,7.952
33.38,7.944
33.384,7.928
33.388,7.96
33.392,7.984
33.396,7.936
33.4,7.944
33.404,7.916
33.408,8.02
33.412,7.984
33.416,7.948
33.42,7.96
33.424,8.028
33.428,7.996
33.432,8.012
33.436,7.988
33.44,8.032
33.444,8.064
33.448,8.072
33.452,8.044
33.456,8.128
33.46,8.128
33.464,7.972
33.468,8.064
33.472,8.184
33.476,8.24
33.48,8.36
33.484,8.388
33.488,8.496
33.492,8.524
33.496,8.464
33.5,8.484
33.504,8.436
33.508,8.464
33.512,8.424
33.516,8.404
33.52,8.544
33.524,8.608
33.528,8.68
33.532,8.628
33.536,8.74
33.54,8.856
33.544,8.828
33.548,8.832
33.552,8.832
33.556,8.98
33.56,9.092
33.564,9.08
33.568,9.108
33.572,9.036
33.576,8.912
33.58,8.892
33.584,8.832
33.588,8.68
33.592,8.656
33.596,8.668
33.6,8.548
33.604,8.484
33.608,8.444
33.612,8.384
33.616,8.192
33.62,8.188
33.624,8.172
33.628,8.116
33.632,8.032
33.636,7.94
33.64,7.928
33.644,8.012
33.648,7.968
33.652,7.98
33.656,8.156
33.66,8.032
33.664,7.892
33.668,7.796
33.672,7.836
33.676,7.948
33.68,8.032
33.684,8.068
33.688,7.956
33.692,7.928
33.696,7.864
33.7,7.892
33.704,7.912
33.708,7.992
33.712,7.976
33.716,8.02
33.72,7.988
33.724,7.964
33.728,7.956
33.732,7.92
33.736,7.984
33.74,8.056
33.744,8.168
33.748,8.264
33.752,8.132
33.756,7.916
33.76,7.848
33.764,7.94
33.768,7.764
33.772,7.712
33.776,7.784
33.78,7.836
33.784,7.82
33.788,7.864
33.792,7.968
33.796,7.876
33.8,7.832
33.804,7.924
33.808,7.96
33.812,7.992
33.816,7.988
33.82,7.924
33.824,7.864
33.828,7.816
33.832,7.78
33.836,7.832
33.84,7.824
33.844,7.824
33.848,7.788
33.852,7.808
33.856,7.88
33.86,7.888
33.864,7.96
33.868,7.948
33.872,7.952
33.876,8.044
33.88,8.044
33.884,8.08
33.888,8.168
33.892,8.252
33.896,8.376
33.9,8.34
33.904,8.172
33.908,8.124
33.912,8.148
33.916,8.292
33.92,8.28
33.924,8.112
33.928,8.044
33.932,7.96
33.936,7.868
33.94,7.86
33.944,7.872
33.948,7.9
33.952,7.816
33.956,7.988
33.96,8.048
33.964,7.992
33.968,8.116
33.972,8.192
33.976,8.04
33.98,7.896
33.984,7.868
33.988,7.908
33.992,8.02
33.996,7.84
34,7.844
34.004,8.008
34.008,7.992
34.012,8.04
34.016,8.316
34.02,8.336
34.024,8.076
34.028,7.848
34.032,7.844
34.036,7.984
34.04,8.172
34.044,8.128
34.048,8.02
34.052,7.988
34.056,7.968
34.06,8.112
34.064,8.208
34.068,8.584
34.072,9.028
34.076,9.548
34.08,10.16
34.084,11.036
34.088,11.092
34.092,10.24
34.096,9.892
34.1,9.44
34.104,8.752
34.108,8.304
34.112,8.06
34.116,7.952
34.12,8.1
34.124,8.212
34.128,8.176
34.132,8.136
34.136,8.204
34.14,8.264
34.144,8.272
34.148,8.272
34.152,8.26
34.156,8.248
34.16,8.26
34.164,8.204
34.168,8.16
34.172,8.212
34.176,8.284
34.18,8.372
34.184,8.436
34.188,8.296
34.192,8.192
34.196,8.2
34.2,8.1
34.204,8.228
34.208,8.26
34.212,8.24
34.216,8.268
34.22,8.192
34.224,8.128
34.228,8.192
34.232,8.228
34.236,8.32
34.24,8.408
34.244,8.24
34.248,8.184
34.252,7.984
34.256,8.072
34.26,8.184
34.264,8.248
34.268,8.32
34.272,8.5
34.276,8.468
34.28,8.28
34.284,8.352
34.288,8.288
34.292,8.412
34.296,8.424
34.3,8.36
34.304,8.512
34.308,8.668
34.312,8.68
34.316,8.708
34.32,8.852
34.324,8.856
34.328,8.8
34.332,8.684
34.336,8.752
34.34,8.92
34.344,8.884
34.348,8.9
34.352,8.912
34.356,8.868
34.36,8.748
34.364,8.752
34.368,8.644
34.372,8.564
34.376,8.524
34.38,8.412
34.384,8.28
34.388,8.172
34.392,8.296
34.396,8.34
34.4,8.236
34.404,8.072
34.408,7.936
34.412,7.848
34.416,7.86
34.42,7.948
34.424,7.896
34.428,7.88
34.432,7.852
34.436,7.94
34.44,8.012
34.444,7.804
34.448,7.976
34.452,8.116
34.456,8.2
34.46,7.992
34.464,7.744
34.468,7.676
34.472,7.848
34.476,7.972
34.48,7.888
34.484,7.792
34.488,7.952
34.492,8.004
34.496,7.976
34.5,8.08
34.504,8.3
34.508,8.336
34.512,7.96
34.516,7.712
34.52,7.924
34.524,8.068
34.528,8.072
34.532,7.904
34.536,7.876
34.54,7.948
34.544,8.028
34.548,7.936
34.552,7.924
34.556,7.972
34.56,8.004
34.564,8.14
34.568,8.076
34.572,7.86
34.576,7.804
34.58,7.828
34.584,7.868
34.588,7.996
34.592,8.06
34.596,7.844
34.6,7.688
34.604,7.756
34.608,7.792
34.612,7.764
34.616,7.908
34.62,7.972
34.624,8.004
34.628,7.984
34.632,7.984
34.636,7.956
34.64,8.08
34.644,8.136
34.648,8.132
34.652,8.104
34.656,8.068
34.66,8.048
34.664,8.22
34.668,8.088
34.672,8.108
34.676,8.112
34.68,8.084
34.684,8.02
34.688,7.924
34.692,7.92
34.696,7.864
34.7,7.776
34.704,7.82
34.708,7.824
34.712,7.824
34.716,7.788
34.72,7.756
34.724,7.792
34.728,7.788
34.732,7.768
34.736,7.76
34.74,7.764
34.744,7.852
34.748,7.804
34.752,7.772
34.756,7.792
34.76,7.816
34.764,7.788
34.768,7.824
34.772,7.832
34.776,7.824
34.78,7.756
34.784,7.752
34.788,7.704
34.792,7.768
34.796,7.748
34.8,7.72
34.804,7.688
34.808,7.756
34.812,7.88
34.816,8.144
34.82,8.544
34.824,9.152
34.828,9.792
34.832,10.672
34.836,10.792
34.84,9.904
34.844,9.34
34.848,8.86
34.852,8.412
34.856,8.084
34.86,7.808
34.864,7.748
34.868,7.836
34.872,7.944
34.876,8.248
34.88,8.404
34.884,8.084
34.888,8.064
34.892,8.14
34.896,8.156
34.9,8.048
34.904,8.088
34.908,8.108
34.912,8.092
34.916,7.964
34.92,8.012
34.924,8.128
34.928,8
34.932,8.052
34.936,7.972
34.94,8.004
34.944,8.032
34.948,7.968
34.952,7.952
34.956,8.012
34.96,8.084
34.964,8.16
34.968,8.092
34.972,8.1
34.976,8.16
34.98,8.128
34.984,8.128
34.988,8.184
34.992,8.212
34.996,8.192
35,8.136
35.004,8.132
35.008,8.224
35.012,8.284
35.016,8.252
35.02,8.256
35.024,8.324
35.028,8.368
35.032,8.372
35.036,8.304
35.04,8.42
35.044,8.508
35.048,8.512
35.052,8.548
35.056,8.62
35.06,8.676
35.064,8.66
35.068,8.7
35.072,8.792
35.076,8.852
35.08,8.832
35.084,8.86
35.088,8.932
35.092,8.988
35.096,8.952
35.1,8.876
35.104,8.892
35.108,8.832
35.112,8.784
35.116,8.696
35.12,8.568
35.124,8.504
35.128,8.428
35.132,8.288
35.136,8.232
35.14,8.176
35.144,8.128
35.148,8.08
35.152,8.016
35.156,8.028
35.16,8.024
35.164,7.984
35.168,7.924
35.172,7.908
35.176,7.936
35.18,7.88
35.184,7.884
35.188,7.924
35.192,7.94
35.196,7.904
35.2,7.848
35.204,7.9
35.208,7.924
35.212,7.888
35.216,7.86
35.22,7.868
35.224,7.92
35.228,7.888
35.232,7.868
35.236,7.856
35.24,7.896
35.244,7.896
35.248,7.832
35.252,7.828
35.256,7.88
35.26,7.892
35.264,7.852
35.268,7.868
35.272,7.872
35.276,7.896
35.28,7.86
35.284,7.792
35.288,7.844
35.292,7.852
35.296,7.832
35.3,7.84
35.304,7.82
35.308,7.812
35.312,7.836
35.316,7.776
35.32,7.804
35.324,7.844
35.328,7.836
35.332,7.78
35.336,7.768
35.34,7.804
35.344,7.852
35.348,7.844
35.352,7.876
35.356,7.932
35.36,7.944
35.364,7.912
35.368,7.888
35.372,7.952
35.376,8.02
35.38,8.06
35.384,8.06
35.388,8.028
35.392,8.068
35.396,8.012
35.4,7.984
35.404,7.964
35.408,7.964
35.412,7.936
35.416,7.872
35.42,7.848
35.424,7.856
35.428,7.776
35.432,7.704
35.436,7.664
35.44,7.696
35.444,7.704
35.448,7.68
35.452,7.612
35.456,7.66
35.46,7.684
35.464,7.64
35.468,7.64
35.472,7.68
35.476,7.728
35.48,7.728
35.484,7.684
35.488,7.684
35.492,7.684
35.496,7.66
35.5,7.664
35.504,7.688
35.508,7.724
35.512,7.704
35.516,7.68
35.52,7.7
35.524,7.732
35.528,7.74
35.532,7.688
35.536,7.632
35.54,7.648
35.544,7.624
35.548,7.704
35.552,7.924
35.556,8.448
35.56,9.06
35.564,9.732
35.568,10.544
35.572,10.56
35.576,9.596
35.58,9.012
35.584,8.508
35.588,8.064
35.592,7.724
35.596,7.404
35.6,7.272
35.604,7.48
35.608,7.676
35.612,7.832
35.616,7.896
35.62,7.856
35.624,7.896
35.628,7.912
35.632,7.844
35.636,7.808
35.64,7.832
35.644,7.94
35.648,7.928
35.652,7.868
35.656,7.884
35.66,7.876
35.664,7.956
35.668,7.944
35.672,7.92
35.676,7.972
35.68,7.968
35.684,7.948
35.688,7.996
35.692,8.016
35.696,7.932
35.7,7.992
35.704,7.984
35.708,8.096
35.712,8.044
35.716,8.092
35.72,8.084
35.724,8.16
35.728,8.14
35.732,8.112
35.736,8.104
35.74,8.188
35.744,8.196
35.748,8.152
35.752,8.172
35.756,8.284
35.76,8.308
35.764,8.292
35.768,8.284
35.772,8.36
35.776,8.376
35.78,8.444
35.784,8.46
35.788,8.54
35.792,8.652
35.796,8.612
35.8,8.664
35.804,8.716
35.808,8.772
35.812,8.832
35.816,8.836
35.82,8.88
35.824,8.904
35.828,8.932
35.832,8.908
35.836,8.896
35.84,8.876
35.844,8.832
35.848,8.712
35.852,8.592
35.856,8.536
35.86,8.48
35.864,8.328
35.868,8.236
35.872,8.224
35.876,8.18
35.88,8.112
35.884,8.028
35.888,7.968
35.892,7.972
35.896,7.916
35.9,7.9
35.904,7.912
35.908,7.944
35.912,7.9
35.916,7.872
35.92,7.836
35.924,7.896
35.928,7.864
35.932,7.848
35.936,7.844
35.94,7.88
35.944,7.84
35.948,7.864
35.952,7.868
35.956,7.86
35.96,7.908
35.964,7.896
35.968,7.832
35.972,7.892
35.976,7.892
35.98,7.852
35.984,7.848
35.988,7.864
35.992,7.888
35.996,7.872
36,7.856
36.004,7.884
36.008,7.896
36.012,7.868
36.016,7.852
36.02,7.84
36.024,7.864
36.028,7.856
36.032,7.856
36.036,7.824
36.04,7.9
36.044,7.916
36.048,7.832
36.052,7.796
36.056,7.868
36.06,7.864
36.064,7.816
36.068,7.824
36.072,7.824
36.076,7.908
36.08,7.84
36.084,7.852
36.088,7.904
36.092,7.952
36.096,7.976
36.1,7.944
36.104,8.024
36.108,8.068
36.112,8.052
36.116,8.056
36.12,8.112
36.124,8.204
36.128,8.176
36.132,8.132
36.136,8.156
36.14,8.228
36.144,8.172
36.148,8.068
36.152,8.08
36.156,8.12
36.16,8.08
36.164,7.992
36.168,7.936
36.172,7.936
36.176,7.936
36.18,7.88
36.184,7.852
36.188,7.852
36.192,7.872
36.196,7.872
36.2,7.836
36.204,7.836
36.208,7.892
36.212,7.832
36.216,7.772
36.22,7.792
36.224,7.836
36.228,7.832
36.232,7.824
36.236,7.816
36.24,7.844
36.244,7.868
36.248,7.82
36.252,7.836
36.256,7.852
36.26,7.872
36.264,7.892
36.268,7.872
36.272,7.892
36.276,7.888
36.28,7.8
36.284,7.764
36.288,7.816
36.292,8.032
36.296,8.36
36.3,8.796
36.304,9.404
36.308,10.2
36.312,10.852
36.316,10.228
36.32,9.48
36.324,9.048
36.328,8.632
36.332,8.144
36.336,7.776
36.34,7.552
36.344,7.576
36.348,7.748
36.352,7.896
36.356,8.036
36.36,8.084
36.364,8.088
36.368,8.052
36.372,8.064
36.376,8.096
36.38,8.056
36.384,8.048
36.388,8.068
36.392,8.108
36.396,8.096
36.4,8.064
36.404,8.096
36.408,8.128
36.412,8.108
36.416,8.076
36.42,8.116
36.424,8.156
36.428,8.172
36.432,8.144
36.436,8.156
36.44,8.152
36.444,8.204
36.448,8.164
36.452,8.148
36.456,8.188
36.46,8.208
36.464,8.216
36.468,8.228
36.472,8.244
36.476,8.332
36.48,8.308
36.484,8.28
36.488,8.336
36.492,8.364
36.496,8.392
36.5,8.42
36.504,8.456
36.508,8.536
36.512,8.556
36.516,8.564
36.52,8.624
36.524,8.652
36.528,8.676
36.532,8.708
36.536,8.788
36.54,8.864
36.544,8.932
36.548,8.888
36.552,8.908
36.556,8.98
36.56,9.056
36.564,9.052
36.568,9.032
36.572,9.032
36.576,9.06
36.58,8.996
36.584,8.948
36.588,8.94
36.592,8.92
36.596,8.776
36.6,8.668
36.604,8.6
36.608,8.564
36.612,8.48
36.616,8.356
36.62,8.328
36.624,8.34
36.628,8.284
36.632,8.216
36.636,8.176
36.64,8.176
36.644,8.176
36.648,8.092
36.652,8.064
36.656,8.12
36.66,8.128
36.664,8.076
36.668,8.032
36.672,8.064
36.676,8.1
36.68,8.044
36.684,8.04
36.688,8.072
36.692,8.06
36.696,8.06
36.7,8.04
36.704,8.108
36.708,8.18
36.712,8.184
36.716,8.172
36.72,8.148
36.724,8.172
36.728,8.12
36.732,8.116
36.736,8.104
36.74,8.116
36.744,8.148
36.748,8.088
36.752,8.08
36.756,8.076
36.76,8.092
36.764,8.112
36.768,8.044
36.772,8.048
36.776,8.068
36.78,8.064
36.784,8.068
36.788,8.112
36.792,8.188
36.796,8.156
36.8,8.096
36.804,8.104
36.808,8.152
36.812,8.168
36.816,8.1
36.82,8.148
36.824,8.168
36.828,8.208
36.832,8.228
36.836,8.248
36.84,8.268
36.844,8.248
36.848,8.28
36.852,8.272
36.856,8.356
36.86,8.448
36.864,8.424
36.868,8.388
36.872,8.436
36.876,8.412
36.88,8.344
36.884,8.3
36.888,8.384
36.892,8.452
36.896,8.408
36.9,8.3
36.904,8.284
36.908,8.228
36.912,8.24
36.916,8.152
36.92,8.124
36.924,8.14
36.928,8.096
36.932,8.112
36.936,8.088
36.94,8.152
36.944,8.104
36.948,8.076
36.952,8
36.956,8.06
36.96,8.068
36.964,8.128
36.968,8.04
36.972,8.012
36.976,8.052
36.98,8.092
36.984,8.08
36.988,8.116
36.992,8.108
36.996,8.016
37,8.008
37.004,8.148
37.008,8.172
37.012,8.132
37.016,8.076
37.02,8.04
37.024,7.992
37.028,8.092
37.032,8.276
37.036,8.672
37.04,9.216
37.044,9.812
37.048,10.688
37.052,11.068
37.056,10.224
37.06,9.62
37.064,9.184
37.068,8.676
37.072,8.288
37.076,7.92
37.08,7.712
37.084,7.78
37.088,8.024
37.092,8.208
37.096,8.22
37.1,8.224
37.104,8.272
37.108,8.3
37.112,8.28
37.116,8.244
37.12,8.24
37.124,8.316
37.128,8.3
37.132,8.284
37.136,8.296
37.14,8.312
37.144,8.34
37.148,8.3
37.152,8.276
37.156,8.316
37.16,8.316
37.164,8.272
37.168,8.292
37.172,8.304
37.176,8.36
37.18,8.3
37.184,8.316
37.188,8.344
37.192,8.372
37.196,8.332
37.2,8.356
37.204,8.388
37.208,8.432
37.212,8.424
37.216,8.4
37.22,8.392
37.224,8.476
37.228,8.504
37.232,8.472
37.236,8.508
37.24,8.548
37.244,8.616
37.248,8.616
37.252,8.628
37.256,8.704
37.26,8.76
37.264,8.788
37.268,8.84
37.272,8.88
37.276,8.984
37.28,9.052
37.284,9.048
37.288,9.096
37.292,9.16
37.296,9.176
37.3,9.188
37.304,9.24
37.308,9.332
37.312,9.264
37.316,9.184
37.32,9.232
37.324,9.18
37.328,9.056
37.332,8.952
37.336,8.908
37.34,8.832
37.344,8.78
37.348,8.64
37.352,8.624
37.356,8.508
37.36,8.492
37.364,8.424
37.368,8.396
37.372,8.336
37.376,8.432
37.38,8.364
37.384,8.3
37.388,8.356
37.392,8.444
37.396,8.3
37.4,8.256
37.404,8.316
37.408,8.312
37.412,8.24
37.416,8.228
37.42,8.332
37.424,8.26
37.428,8.228
37.432,8.28
37.436,8.4
37.44,8.292
37.444,8.216
37.448,8.248
37.452,8.28
37.456,8.3
37.46,8.316
37.464,8.324
37.468,8.288
37.472,8.28
37.476,8.232
37.48,8.192
37.484,8.188
37.488,8.272
37.492,8.308
37.496,8.3
37.5,8.392
37.504,8.412
37.508,8.188
37.512,8.16
37.516,8.168
37.52,8.444
37.524,8.336
37.528,8.208
37.532,8.1
37.536,8.144
37.54,8.164
37.544,8.176
37.548,8.144
37.552,8.076
37.556,7.992
37.56,8.156
37.564,8.064
37.568,8.04
37.572,8.024
37.576,8.148
37.58,8.124
37.584,8.144
37.588,8.244
37.592,8.44
37.596,8.332
37.6,8.212
37.604,8.204
37.608,8.352
37.612,8.404
37.616,8.408
37.62,8.344
37.624,8.412
37.628,8.44
37.632,8.344
37.636,8.32
37.64,8.316
37.644,8.444
37.648,8.276
37.652,8.204
37.656,8.236
37.66,8.176
37.664,8.12
37.668,8.08
37.672,8.056
37.676,8.112
37.68,8.076
37.684,8.072
37.688,8.044
37.692,7.992
37.696,8.04
37.7,8.008
37.704,8.052
37.708,8.076
37.712,8.056
37.716,8.02
37.72,8.032
37.724,8.084
37.728,8.124
37.732,8.008
37.736,8.012
37.74,8.064
37.744,8.104
37.748,8.012
37.752,8.056
37.756,8.056
37.76,8.064
37.764,8.064
37.768,8.04
37.772,8.092
37.776,8.06
37.78,8.012
37.784,8.184
37.788,8.552
37.792,9.092
37.796,9.684
37.8,10.464
37.804,11.12
37.808,10.472
37.812,9.712
37.816,9.26
37.82,8.852
37.824,8.4
37.828,8.032
37.832,7.792
37.836,7.852
37.84,8.096
37.844,8.256
37.848,8.288
37.852,8.3
37.856,8.352
37.86,8.376
37.864,8.384
37.868,8.34
37.872,8.352
37.876,8.368
37.88,8.336
37.884,8.34
37.888,8.352
37.892,8.34
37.896,8.34
37.9,8.372
37.904,8.408
37.908,8.42
37.912,8.364
37.916,8.348
37.92,8.356
37.924,8.372
37.928,8.368
37.932,8.332
37.936,8.38
37.94,8.404
37.944,8.408
37.948,8.38
37.952,8.42
37.956,8.44
37.96,8.444
37.964,8.436
37.968,8.424
37.972,8.456
37.976,8.484
37.98,8.5
37.984,8.476
37.988,8.536
37.992,8.576
37.996,8.596
38,8.64
38.004,8.672
38.008,8.692
38.012,8.732
38.016,8.764
38.02,8.856
38.024,8.932
38.028,8.96
38.032,8.996
38.036,9.024
38.04,9.124
38.044,9.132
38.048,9.168
38.052,9.216
38.056,9.232
38.06,9.268
38.064,9.276
38.068,9.184
38.072,9.204
38.076,9.196
38.08,9.104
38.084,9
38.088,8.924
38.092,8.848
38.096,8.768
38.1,8.664
38.104,8.56
38.108,8.532
38.112,8.484
38.116,8.404
38.12,8.352
38.124,8.392
38.128,8.332
38.132,8.284
38.136,8.276
38.14,8.304
38.144,8.284
38.148,8.268
38.152,8.228
38.156,8.24
38.16,8.268
38.164,8.268
38.168,8.252
38.172,8.264
38.176,8.268
38.18,8.236
38.184,8.232
38.188,8.264
38.192,8.316
38.196,8.268
38.2,8.228
38.204,8.264
38.208,8.288
38.212,8.28
38.216,8.256
38.22,8.26
38.224,8.292
38.228,8.256
38.232,8.272
38.236,8.272
38.24,8.272
38.244,8.304
38.248,8.272
38.252,8.272
38.256,8.296
38.26,8.28
38.264,8.224
38.268,8.216
38.272,8.256
38.276,8.24
38.28,8.248
38.284,8.252
38.288,8.316
38.292,8.28
38.296,8.244
38.3,8.216
38.304,8.288
38.308,8.248
38.312,8.18
38.316,8.24
38.32,8.22
38.324,8.228
38.328,8.264
38.332,8.228
38.336,8.268
38.34,8.28
38.344,8.324
38.348,8.308
38.352,8.344
38.356,8.356
38.36,8.376
38.364,8.36
38.368,8.404
38.372,8.46
38.376,8.512
38.38,8.548
38.384,8.472
38.388,8.536
38.392,8.544
38.396,8.528
38.4,8.468
38.404,8.44
38.408,8.44
38.412,8.44
38.416,8.34
38.42,8.392
38.424,8.36
38.428,8.3
38.432,8.236
38.436,8.216
38.44,8.216
38.444,8.248
38.448,8.224
38.452,8.196
38.456,8.232
38.46,8.256
38.464,8.236
38.468,8.184
38.472,8.204
38.476,8.228
38.48,8.14
38.484,8.164
38.488,8.2
38.492,8.24
38.496,8.208
38.5,8.16
38.504,8.204
38.508,8.24
38.512,8.228
38.516,8.144
38.52,8.2
38.524,8.264
38.528,8.272
38.532,8.2
38.536,8.168
38.54,8.14
38.544,8.192
38.548,8.364
38.552,8.752
38.556,9.264
38.56,9.908
38.564,10.644
38.568,11.248
38.572,10.52
38.576,9.776
38.58,9.296
38.584,8.884
38.588,8.46
38.592,8.184
38.596,7.916
38.6,7.908
38.604,8.06
38.608,8.28
38.612,8.352
38.616,8.4
38.62,8.388
38.624,8.432
38.628,8.396
38.632,8.404
38.636,8.392
38.64,8.448
38.644,8.4
38.648,8.412
38.652,8.424
38.656,8.416
38.66,8.456
38.664,8.464
38.668,8.416
38.672,8.436
38.676,8.512
38.68,8.492
38.684,8.468
38.688,8.5
38.692,8.536
38.696,8.508
38.7,8.492
38.704,8.516
38.708,8.5
38.712,8.552
38.716,8.548
38.72,8.532
38.724,8.604
38.728,8.624
38.732,8.612
38.736,8.644
38.74,8.676
38.744,8.676
38.748,8.672
38.752,8.736
38.756,8.78
38.76,8.82
38.764,8.808
38.768,8.848
38.772,8.952
38.776,9.012
38.78,9.056
38.784,9.068
38.788,9.156
38.792,9.196
38.796,9.244
38.8,9.288
38.804,9.316
38.808,9.392
38.812,9.436
38.816,9.452
38.82,9.46
38.824,9.512
38.828,9.5
38.832,9.436
38.836,9.428
38.84,9.392
38.844,9.336
38.848,9.228
38.852,9.14
38.856,9.08
38.86,9.016
38.864,8.868
38.868,8.808
38.872,8.776
38.876,8.748
38.88,8.644
38.884,8.592
38.888,8.596
38.892,8.584
38.896,8.572
38.9,8.528
38.904,8.532
38.908,8.556
38.912,8.528
38.916,8.496
38.92,8.48
38.924,8.524
38.928,8.5
38.932,8.46
38.936,8.456
38.94,8.512
38.944,8.488
38.948,8.476
38.952,8.476
38.956,8.52
38.96,8.536
38.964,8.5
38.968,8.484
38.972,8.504
38.976,8.532
38.98,8.484
38.984,8.492
38.988,8.488
38.992,8.516
38.996,8.512
39,8.512
39.004,8.528
39.008,8.552
39.012,8.516
39.016,8.496
39.02,8.496
39.024,8.528
39.028,8.528
39.032,8.484
39.036,8.484
39.04,8.544
39.044,8.576
39.048,8.504
39.052,8.504
39.056,8.508
39.06,8.512
39.064,8.516
39.068,8.468
39.072,8.516
39.076,8.552
39.08,8.524
39.084,8.492
39.088,8.52
39.092,8.544
39.096,8.536
39.1,8.508
39.104,8.536
39.108,8.588
39.112,8.616
39.116,8.596
39.12,8.668
39.124,8.664
39.128,8.672
39.132,8.652
