0,7.964
0.004,7.948
0.008,7.972
0.012,7.936
0.016,7.948
0.02,7.948
0.024,7.968
0.028,7.948
0.032,7.94
0.036,7.952
0.04,7.956
0.044,7.928
0.048,7.94
0.052,7.952
0.056,7.964
0.06,7.928
0.064,7.928
0.068,7.924
0.072,7.956
0.076,7.924
0.08,7.944
0.084,7.944
0.088,7.964
0.092,7.956
0.096,7.936
0.1,7.912
0.104,7.944
0.108,7.944
0.112,7.928
0.116,7.924
0.12,7.964
0.124,7.988
0.128,7.944
0.132,7.98
0.136,7.996
0.14,8.004
0.144,7.996
0.148,8.02
0.152,8.052
0.156,8.096
0.16,8.128
0.164,8.14
0.168,8.16
0.172,8.2
0.176,8.148
0.18,8.068
0.184,8.048
0.188,8.064
0.192,8.04
0.196,7.996
0.2,8
0.204,8.008
0.208,7.952
0.212,7.924
0.216,7.888
0.22,7.932
0.224,7.94
0.228,7.916
0.232,7.892
0.236,7.924
0.24,7.94
0.244,7.888
0.248,7.908
0.252,7.952
0.256,7.924
0.26,7.924
0.264,7.884
0.268,7.844
0.272,7.752
0.276,7.86
0.28,8.136
0.284,8.576
0.288,9.256
0.292,9.856
0.296,10.496
0.3,11.048
0.304,11.172
0.308,11.116
0.312,10.312
0.316,8.916
0.32,7.952
0.324,7.572
0.328,7.476
0.332,7.564
0.336,7.732
0.34,7.82
0.344,7.932
0.348,8.004
0.352,8.008
0.356,8.004
0.36,7.968
0.364,7.972
0.368,7.976
0.372,7.98
0.376,7.996
0.38,7.98
0.384,8.008
0.388,8.004
0.392,8.02
0.396,7.988
0.4,8.012
0.404,8.016
0.408,8.004
0.412,8.012
0.416,8.036
0.42,8.028
0.424,8.04
0.428,8.028
0.432,8.048
0.436,8.08
0.44,8.088
0.444,8.072
0.448,8.072
0.452,8.096
0.456,8.108
0.46,8.1
0.464,8.1
0.468,8.14
0.472,8.164
0.476,8.16
0.48,8.16
0.484,8.212
0.488,8.244
0.492,8.264
0.496,8.248
0.5,8.288
0.504,8.324
0.508,8.348
0.512,8.372
0.516,8.432
0.52,8.508
0.524,8.532
0.528,8.536
0.532,8.584
0.536,8.644
0.54,8.696
0.544,8.732
0.548,8.784
0.552,8.84
0.556,8.864
0.56,8.856
0.564,8.848
0.568,8.86
0.572,8.832
0.576,8.76
0.58,8.72
0.584,8.64
0.588,8.588
0.592,8.512
0.596,8.416
0.6,8.372
0.604,8.316
0.608,8.264
0.612,8.188
0.616,8.144
0.62,8.112
0.624,8.108
0.628,8.028
0.632,8.008
0.636,8.004
0.64,7.996
0.644,7.976
0.648,7.98
0.652,7.976
0.656,7.976
0.66,7.956
0.664,7.956
0.668,7.96
0.672,7.972
0.676,7.964
0.68,7.952
0.684,7.984
0.688,8
0.692,7.972
0.696,7.948
0.7,7.96
0.704,7.988
0.708,7.968
0.712,7.948
0.716,8
0.72,8.008
0.724,7.992
0.728,7.968
0.732,7.956
0.736,7.992
0.74,7.972
0.744,7.964
0.748,7.972
0.752,7.992
0.756,8.004
0.76,7.968
0.764,7.96
0.768,7.956
0.772,7.976
0.776,7.952
0.78,7.952
0.784,7.964
0.788,7.944
0.792,7.968
0.796,7.92
0.8,7.908
0.804,7.94
0.808,7.94
0.812,7.92
0.816,7.924
0.82,7.94
0.824,7.928
0.828,7.896
0.832,7.888
0.836,7.892
0.84,7.888
0.844,7.868
0.848,7.836
0.852,7.824
0.856,7.796
0.86,7.772
0.864,7.784
0.868,7.828
0.872,7.848
0.876,7.856
0.88,7.864
0.884,7.896
0.888,7.888
0.892,7.908
0.896,7.868
0.9,7.888
0.904,7.888
0.908,7.884
0.912,7.88
0.916,7.88
0.92,7.88
0.924,7.892
0.928,7.852
0.932,7.824
0.936,7.844
0.94,7.852
0.944,7.8
0.948,7.788
0.952,7.788
0.956,7.808
0.96,7.792
0.964,7.784
0.968,7.776
0.972,7.636
0.976,7.76
0.98,7.82
0.984,7.784
0.988,7.8
0.992,7.796
0.996,7.816
1,7.908
1.004,7.956
1.008,7.892
1.012,7.896
1.016,7.92
1.02,7.96
1.024,8.008
1.028,7.988
1.032,8.004
1.036,8.048
1.04,8.092
1.044,8.108
1.048,8.124
1.052,8.136
1.056,8.128
1.06,8.032
1.064,7.984
1.068,7.984
1.072,7.96
1.076,7.908
1.08,7.904
1.084,7.912
1.088,7.9
1.092,7.868
1.096,7.816
1.1,7.836
1.104,7.864
1.108,7.868
1.112,7.948
1.116,7.96
1.12,7.908
1.124,7.904
1.128,7.848
1.132,7.824
1.136,7.852
1.14,7.84
1.144,7.808
1.148,7.728
1.152,7.716
1.156,7.872
1.16,8.184
1.164,8.696
1.168,9.456
1.172,10.12
1.176,10.728
1.18,11.128
1.184,11.148
1.188,10.896
1.192,9.82
1.196,8.436
1.2,7.692
1.204,7.484
1.208,7.444
1.212,7.568
1.216,7.676
1.22,7.86
1.224,8.004
1.228,8.052
1.232,7.996
1.236,7.964
1.24,7.932
1.244,7.988
1.248,8.076
1.252,8.052
1.256,7.972
1.26,7.888
1.264,7.852
1.268,7.9
1.272,7.916
1.276,7.936
1.28,7.964
1.284,8.04
1.288,8.012
1.292,7.94
1.296,7.932
1.3,7.972
1.304,8.028
1.308,8.008
1.312,8.016
1.316,7.952
1.32,7.98
1.324,7.984
1.328,7.988
1.332,8.012
1.336,8.032
1.34,8.056
1.344,8.028
1.348,8.048
1.352,8.096
1.356,8.12
1.36,8.116
1.364,8.16
1.368,8.204
1.372,8.208
1.376,8.192
1.38,8.188
1.384,8.264
1.388,8.3
1.392,8.352
1.396,8.376
1.4,8.46
1.404,8.532
1.408,8.544
1.412,8.544
1.416,8.588
1.42,8.664
1.424,8.7
1.428,8.724
1.432,8.724
1.436,8.792
1.44,8.8
1.444,8.792
1.448,8.784
1.452,8.748
1.456,8.704
1.46,8.62
1.464,8.532
1.468,8.472
1.472,8.444
1.476,8.36
1.48,8.284
1.484,8.224
1.488,8.172
1.492,8.124
1.496,8.072
1.5,8.032
1.504,7.992
1.508,7.936
1.512,7.896
1.516,7.884
1.52,7.896
1.524,7.88
1.528,7.844
1.532,7.828
1.536,7.84
1.54,7.848
1.544,7.824
1.548,7.832
1.552,7.864
1.556,7.884
1.56,7.876
1.564,7.872
1.568,7.896
1.572,7.852
1.576,7.864
1.58,7.884
1.584,7.928
1.588,7.924
1.592,7.964
1.596,7.916
1.6,7.904
1.604,7.92
1.608,7.876
1.612,7.872
1.616,7.892
1.62,7.924
1.624,7.932
1.628,7.928
1.632,7.924
1.636,7.932
1.64,7.92
1.644,7.936
1.648,7.9
1.652,7.94
1.656,7.924
1.66,7.932
1.664,7.916
1.668,7.936
1.672,7.936
1.676,7.924
1.68,7.9
1.684,7.924
1.688,7.944
1.692,7.932
1.696,7.92
1.7,7.952
1.704,7.944
1.708,7.932
1.712,7.872
1.716,7.92
1.72,7.944
1.724,7.94
1.728,7.916
1.732,7.932
1.736,7.956
1.74,7.956
1.744,7.932
1.748,7.916
1.752,7.924
1.756,7.928
1.76,7.92
1.764,7.88
1.768,7.912
1.772,7.92
1.776,7.924
1.78,7.896
1.784,7.924
1.788,7.964
1.792,7.948
1.796,7.904
1.8,7.92
1.804,7.948
1.808,7.956
1.812,7.952
1.816,7.96
1.82,7.944
1.824,7.944
1.828,7.928
1.832,7.972
1.836,7.984
1.84,8.04
1.844,8.02
1.848,8.04
1.852,8.088
1.856,8.152
1.86,8.156
1.864,8.164
1.868,8.124
1.872,8.088
1.876,8.056
1.88,8.024
1.884,8.036
1.888,8.008
1.892,7.98
1.896,7.96
1.9,7.964
1.904,7.94
1.908,7.9
1.912,7.9
1.916,7.92
1.92,7.932
1.924,7.924
1.928,7.904
1.932,7.876
1.936,7.916
1.94,7.908
1.944,7.912
1.948,7.924
1.952,7.952
1.956,7.92
1.96,7.84
1.964,7.732
1.968,7.78
1.972,8.076
1.976,8.46
1.98,9.136
1.984,9.832
1.988,10.472
1.992,11.044
1.996,11.164
2,11.136
2.004,10.384
2.008,9.016
2.012,7.964
2.016,7.556
2.02,7.464
2.024,7.532
2.028,7.672
2.032,7.812
2.036,7.928
2.04,8.008
2.044,7.98
2.048,7.968
2.052,7.968
2.056,7.98
2.06,7.948
2.064,7.968
2.068,7.964
2.072,8.004
2.076,7.984
2.08,7.984
2.084,7.968
2.088,8.004
2.092,8.004
2.096,7.976
2.1,7.992
2.104,8.032
2.108,8.04
2.112,8.008
2.116,8.036
2.12,8.072
2.124,8.068
2.128,8.064
2.132,8.068
2.136,8.092
2.14,8.076
2.144,8.092
2.148,8.1
2.152,8.12
2.156,8.132
2.16,8.124
2.164,8.152
2.168,8.168
2.172,8.18
2.176,8.212
2.18,8.216
2.184,8.236
2.188,8.276
2.192,8.304
2.196,8.336
2.2,8.364
2.204,8.416
2.208,8.436
2.212,8.46
2.216,8.508
2.22,8.568
2.224,8.628
2.228,8.632
2.232,8.712
2.236,8.756
2.24,8.792
2.244,8.808
2.248,8.84
2.252,8.86
2.256,8.908
2.26,8.892
2.264,8.832
2.268,8.804
2.272,8.748
2.276,8.664
2.28,8.572
2.284,8.512
2.288,8.476
2.292,8.408
2.296,8.32
2.3,8.232
2.304,8.216
2.308,8.148
2.312,8.096
2.316,8.06
2.32,8.048
2.324,8.032
2.328,8.004
2.332,7.996
2.336,8.008
2.34,8
2.344,7.956
2.348,7.952
2.352,7.968
2.356,8.008
2.36,7.988
2.364,7.944
2.368,7.988
2.372,7.96
2.376,7.956
2.38,7.972
2.384,7.972
2.388,7.976
2.392,7.976
2.396,7.972
2.4,7.984
2.404,8
2.408,7.976
2.412,7.964
2.416,7.972
2.42,8.016
2.424,7.988
2.428,7.948
2.432,7.96
2.436,7.992
2.44,7.972
2.444,7.964
2.448,7.976
2.452,7.984
2.456,8.012
2.46,8.02
2.464,8.004
2.468,8.016
2.472,8.008
2.476,7.988
2.48,7.98
2.484,8.004
2.488,8.024
2.492,7.992
2.496,7.984
2.5,7.996
2.504,8.016
2.508,8.024
2.512,8
2.516,8
2.52,7.992
2.524,8
2.528,8.02
2.532,8.004
2.536,8.004
2.54,8.028
2.544,7.992
2.548,7.984
2.552,8.004
2.556,7.996
2.56,7.976
2.564,7.98
2.568,8.012
2.572,7.98
2.576,7.956
2.58,7.972
2.584,7.992
2.588,8.004
2.592,8.028
2.596,7.996
2.6,8.02
2.604,8.096
2.608,8.068
2.612,8.052
2.616,8.12
2.62,8.196
2.624,8.248
2.628,8.268
2.632,8.24
2.636,8.176
2.64,8.136
2.644,8.092
2.648,8.048
2.652,8.06
2.656,8.052
2.66,8.06
2.664,8.024
2.668,8.004
2.672,7.976
2.676,7.964
2.68,7.964
2.684,7.976
2.688,8.016
2.692,7.984
2.696,7.984
2.7,7.972
2.704,8.004
2.708,8
2.712,7.984
2.716,7.968
2.72,7.98
2.724,7.944
2.728,7.852
2.732,7.82
2.736,8
2.74,8.316
2.744,8.876
2.748,9.592
2.752,10.232
2.756,10.888
2.76,11.208
2.764,11.252
2.768,10.884
2.772,9.7
2.776,8.38
2.78,7.74
2.784,7.552
2.788,7.556
2.792,7.692
2.796,7.824
2.8,7.92
2.804,8.04
2.808,8.036
2.812,8
2.816,8.008
2.82,8.036
2.824,8.064
2.828,8.036
2.832,8.048
2.836,8.056
2.84,8.072
2.844,8.056
2.848,8.06
2.852,8.076
2.856,8.1
2.86,8.072
2.864,8.06
2.868,8.068
2.872,8.092
2.876,8.08
2.88,8.128
2.884,8.148
2.888,8.14
2.892,8.112
2.896,8.116
2.9,8.144
2.904,8.184
2.908,8.176
2.912,8.16
2.916,8.184
2.92,8.208
2.924,8.208
2.928,8.212
2.932,8.232
2.936,8.268
2.94,8.28
2.944,8.26
2.948,8.3
2.952,8.352
2.956,8.384
2.96,8.408
2.964,8.416
2.968,8.464
2.972,8.52
2.976,8.54
2.98,8.58
2.984,8.628
2.988,8.712
2.992,8.74
2.996,8.76
3,8.812
3.004,8.876
3.008,8.896
3.012,8.912
3.016,8.94
3.02,9
3.024,8.972
3.028,8.916
3.032,8.852
3.036,8.804
3.04,8.744
3.044,8.672
3.048,8.608
3.052,8.556
3.056,8.496
3.06,8.416
3.064,8.336
3.068,8.284
3.072,8.244
3.076,8.184
3.08,8.136
3.084,8.136
3.088,8.148
3.092,8.092
3.096,8.072
3.1,8.064
3.104,8.076
3.108,8.064
3.112,8.036
3.116,8.036
3.12,8.068
3.124,8.068
3.128,8.048
3.132,8.04
3.136,8.036
3.14,8.052
3.144,8.048
3.148,8.072
3.152,8.064
3.156,8.096
3.16,8.076
3.164,8.04
3.168,8.072
3.172,8.088
3.176,8.08
3.18,8.052
3.184,8.076
3.188,8.096
3.192,8.08
3.196,8.036
3.2,8.064
3.204,8.076
3.208,8.068
3.212,8.056
3.216,8.068
3.22,8.092
3.224,8.092
3.228,8.048
3.232,8.032
3.236,8.072
3.24,8.072
3.244,8.06
3.248,8.06
3.252,8.064
3.256,8.072
3.26,8.04
3.264,8.028
3.268,8.036
3.272,8.028
3.276,8.008
3.28,8.008
3.284,7.996
3.288,8.024
3.292,8.012
3.296,7.976
3.3,7.972
3.304,7.98
3.308,7.98
3.312,7.936
3.316,7.944
3.32,7.928
3.324,7.936
3.328,7.892
3.332,7.888
3.336,7.88
3.34,7.892
3.344,7.872
3.348,7.876
3.352,7.908
3.356,7.912
3.36,7.896
3.364,7.896
3.368,7.928
3.372,7.94
3.376,7.96
3.38,7.964
3.384,7.984
3.388,8.012
3.392,8.056
3.396,8.084
3.4,8.16
3.404,8.192
3.408,8.196
3.412,8.136
3.416,8.076
3.42,8.096
3.424,8.08
3.428,8.024
3.432,7.984
3.436,8.012
3.44,8.02
3.444,7.976
3.448,7.924
3.452,7.952
3.456,7.932
3.46,7.948
3.464,7.928
3.468,7.952
3.472,7.96
3.476,7.956
3.48,7.948
3.484,7.96
3.488,7.98
3.492,7.956
3.496,7.948
3.5,7.904
3.504,7.876
3.508,7.8
3.512,7.884
3.516,8.196
3.52,8.736
3.524,9.46
3.528,10.056
3.532,10.676
3.536,11.144
3.54,11.224
3.544,11
3.548,10
3.552,8.696
3.556,7.876
3.56,7.532
3.564,7.48
3.568,7.612
3.572,7.732
3.576,7.852
3.58,7.956
3.584,8
3.588,8.012
3.592,7.996
3.596,7.824
3.6,7.972
3.604,7.984
3.608,7.984
3.612,7.956
3.616,7.948
3.62,8
3.624,8.02
3.628,7.996
3.632,8.004
3.636,7.884
3.64,8.056
3.644,8.02
3.648,8.02
3.652,8.072
3.656,7.876
3.66,8.044
3.664,8.024
3.668,8.064
3.672,8.072
3.676,7.94
3.68,8.088
3.684,8.112
3.688,8.16
3.692,8.14
3.696,7.98
3.7,8.132
3.704,8.172
3.708,8.168
3.712,8.16
3.716,8.148
3.72,8.272
3.724,8.296
3.728,8.272
3.732,8.288
3.736,8.348
3.74,8.38
3.744,8.392
3.748,8.444
3.752,8.496
3.756,8.568
3.76,8.568
3.764,8.6
3.768,8.692
3.772,8.752
3.776,8.784
3.78,8.804
3.784,8.86
3.788,8.936
3.792,8.992
3.796,8.996
3.8,8.944
3.804,8.884
3.808,8.888
3.812,8.872
3.816,8.836
3.82,8.784
3.824,8.636
3.828,8.504
3.832,8.436
3.836,8.408
3.84,8.316
3.844,8.248
3.848,8.228
3.852,8.24
3.856,8.212
3.86,8.148
3.864,8.228
3.868,8.268
3.872,8.196
3.876,8.132
3.88,8.148
3.884,8.096
3.888,8.12
3.892,8.1
3.896,7.98
3.9,7.956
3.904,8.204
3.908,8.592
3.912,8.748
3.916,8.488
3.92,8.208
3.924,8.1
3.928,7.904
3.932,7.9
3.936,7.952
3.94,7.952
3.944,7.96
3.948,8.088
3.952,8.156
3.956,8.008
3.96,7.916
3.964,7.86
3.968,7.868
3.972,8.072
3.976,8.096
3.98,8.032
3.984,7.952
3.988,7.964
3.992,8.092
3.996,8.08
4,8.036
4.004,8.024
4.008,8.06
4.012,8.076
4.016,8.032
4.02,8.068
4.024,8.088
4.028,8.056
4.032,8.032
4.036,8.084
4.04,8.06
4.044,8.116
4.048,8.068
4.052,7.992
4.056,8.252
4.06,8.356
4.064,8.144
4.068,7.904
4.072,7.924
4.076,7.92
4.08,7.976
4.084,7.996
4.088,8.08
4.092,8.092
4.096,8.008
4.1,7.896
4.104,7.912
4.108,7.94
4.112,8.036
4.116,8.14
4.12,8.216
4.124,8.256
4.128,8.228
4.132,8.18
4.136,8.1
4.14,8.108
4.144,8.064
4.148,8.08
4.152,8.072
4.156,8.056
4.16,8.024
4.164,7.992
4.168,7.976
4.172,7.96
4.176,7.964
4.18,7.928
4.184,7.952
4.188,7.964
4.192,7.96
4.196,7.944
4.2,7.94
4.204,7.976
4.208,7.976
4.212,7.956
4.216,7.96
4.22,7.98
4.224,7.936
4.228,7.804
4.232,7.748
4.236,7.94
4.24,8.264
4.244,8.8
4.248,9.48
4.252,10.14
4.256,10.764
4.26,11.16
4.264,11.22
4.268,11.012
4.272,9.924
4.276,8.544
4.28,7.832
4.284,7.608
4.288,7.608
4.292,7.684
4.296,7.796
4.3,7.892
4.304,8.008
4.308,8.028
4.312,7.996
4.316,7.988
4.32,7.996
4.324,8.012
4.328,7.968
4.332,7.992
4.336,7.984
4.34,8.012
4.344,7.988
4.348,7.976
4.352,8.008
4.356,8.04
4.36,8.008
4.364,7.996
4.368,8
4.372,8.016
4.376,8.028
4.38,8.012
4.384,8.032
4.388,8.036
4.392,8.044
4.396,8.016
4.4,8.04
4.404,8.072
4.408,8.068
4.412,8.048
4.416,8.104
4.42,8.12
4.424,8.16
4.428,8.14
4.432,8.136
4.436,8.184
4.44,8.192
4.444,8.176
4.448,8.216
4.452,8.224
4.456,8.264
4.46,8.296
4.464,8.312
4.468,8.352
4.472,8.404
4.476,8.476
4.48,8.54
4.484,8.584
4.488,8.624
4.492,8.66
4.496,8.676
4.5,8.732
4.504,8.78
4.508,8.824
4.512,8.816
4.516,8.848
4.52,8.908
4.524,8.884
4.528,8.824
4.532,8.768
4.536,8.7
4.54,8.636
4.544,8.556
4.548,8.48
4.552,8.416
4.556,8.376
4.56,8.296
4.564,8.224
4.568,8.18
4.572,8.156
4.576,8.08
4.58,8.052
4.584,8.056
4.588,8.056
4.592,8.028
4.596,8.012
4.6,8.008
4.604,8.032
4.608,7.992
4.612,7.984
4.616,8
4.62,8.008
4.624,8
4.628,8.012
4.632,8
4.636,8.032
4.64,8.012
4.644,8
4.648,7.972
4.652,8.024
4.656,8.032
4.66,8.008
4.664,7.984
4.668,8.016
4.672,8.028
4.676,8.024
4.68,8.02
4.684,7.992
4.688,8.048
4.692,8.036
4.696,8.008
4.7,8.016
4.704,8.032
4.708,8.016
4.712,8.012
4.716,8.016
4.72,8.024
4.724,8.04
4.728,8.012
4.732,7.992
4.736,8.02
4.74,8.036
4.744,8.012
4.748,7.996
4.752,8.028
4.756,8.028
4.76,8.012
4.764,7.996
4.768,8.008
4.772,8.02
4.776,8
4.78,7.976
4.784,8.004
4.788,8.036
4.792,8.02
4.796,8.024
4.8,8.016
4.804,8.024
4.808,8.024
4.812,8.032
4.816,8.036
4.82,8.06
4.824,8.076
4.828,8.056
4.832,8.08
4.836,8.108
4.84,8.104
4.844,8.112
4.848,8.112
4.852,8.184
4.856,8.268
4.86,8.268
4.864,8.244
4.868,8.228
4.872,8.168
4.876,8.136
4.88,8.124
4.884,8.092
4.888,8.084
4.892,8.08
4.896,8.048
4.9,8.032
4.904,8.036
4.908,8
4.912,7.996
4.916,8.016
4.92,8.032
4.924,8
4.928,7.976
4.932,7.988
4.936,8.004
4.94,8.008
4.944,7.98
4.948,8.012
4.952,8
4.956,8.016
4.96,7.956
4.964,7.844
4.968,7.852
4.972,8.072
4.976,8.388
4.98,8.972
4.984,9.628
4.988,10.3
4.992,10.892
4.996,11.18
5,11.268
5.004,10.884
5.008,9.692
5.012,8.368
5.016,7.756
5.02,7.56
5.024,7.604
5.028,7.724
5.032,7.828
5.036,7.968
5.04,8.052
5.044,8.052
5.048,8.016
5.052,8.052
5.056,8.048
5.06,8.024
5.064,8.004
5.068,8.04
5.072,8.052
5.076,8.064
5.08,8.04
5.084,8.064
5.088,8.092
5.092,8.092
5.096,8.064
5.1,8.056
5.104,8.084
5.108,8.084
5.112,8.08
5.116,8.104
5.12,8.136
5.124,8.136
5.128,8.136
5.132,8.116
5.136,8.144
5.14,8.16
5.144,8.144
5.148,8.172
5.152,8.2
5.156,8.192
5.16,8.2
5.164,8.192
5.168,8.232
5.172,8.236
5.176,8.28
5.18,8.26
5.184,8.32
5.188,8.336
5.192,8.34
5.196,8.364
5.2,8.432
5.204,8.464
5.208,8.492
5.212,8.52
5.216,8.568
5.22,8.636
5.224,8.696
5.228,8.704
5.232,8.756
5.236,8.808
5.24,8.856
5.244,8.88
5.248,8.892
5.252,8.944
5.256,8.968
5.26,8.896
5.264,8.852
5.268,8.808
5.272,8.788
5.276,8.688
5.28,8.616
5.284,8.556
5.288,8.532
5.292,8.432
5.296,8.34
5.3,8.284
5.304,8.256
5.308,8.22
5.312,8.16
5.316,8.104
5.32,8.124
5.324,8.104
5.328,8.068
5.332,8.048
5.336,8.064
5.34,8.056
5.344,8.036
5.348,8.032
5.352,8.056
5.356,8.052
5.36,8.036
5.364,8.02
5.368,8.04
5.372,8.044
5.376,8.04
5.38,8.016
5.384,8.02
5.388,8.048
5.392,8.064
5.396,8.024
5.4,8.036
5.404,8.056
5.408,8.028
5.412,8.02
5.416,8.044
5.42,8.08
5.424,8.06
5.428,8.036
5.432,8.024
5.436,8.036
5.44,8.052
5.444,8.024
5.448,8.028
5.452,8.044
5.456,8.06
5.46,8.028
5.464,8.032
5.468,8.04
5.472,8.04
5.476,8.024
5.48,8.004
5.484,8.028
5.488,8.044
5.492,8.052
5.496,8.016
5.5,8.004
5.504,8
5.508,7.988
5.512,7.98
5.516,7.992
5.52,8.032
5.524,8.02
5.528,8.012
5.532,8.008
5.536,7.984
5.54,7.996
5.544,7.996
5.548,8.004
5.552,7.992
5.556,8.032
5.56,8.008
5.564,8.004
5.568,8.016
5.572,8.04
5.576,8.036
5.58,8.036
5.584,8.072
5.588,8.096
5.592,8.12
5.596,8.12
5.6,8.18
5.604,8.224
5.608,8.248
5.612,8.204
5.616,8.156
5.62,8.128
5.624,8.128
5.628,8.06
5.632,8.04
5.636,8.044
5.64,8.04
5.644,8.004
5.648,7.956
5.652,7.96
5.656,7.992
5.66,7.964
5.664,7.956
5.668,7.964
5.672,7.964
5.676,7.944
5.68,7.956
5.684,7.972
5.688,7.992
5.692,7.968
5.696,7.944
5.7,7.956
5.704,7.948
5.708,7.888
5.712,7.768
5.716,7.824
5.72,8.12
5.724,8.532
5.728,9.216
5.732,9.864
5.736,10.528
5.74,11.072
5.744,11.156
5.748,11.08
5.752,10.364
5.756,9.04
5.76,7.996
5.764,7.6
5.768,7.48
5.772,7.568
5.776,7.688
5.78,7.792
5.784,7.928
5.788,8.056
5.792,8.02
5.796,7.988
5.8,7.968
5.804,8
5.808,7.98
5.812,7.976
5.816,7.992
5.82,8.008
5.824,8.008
5.828,8.004
5.832,7.984
5.836,8.024
5.84,8
5.844,8.012
5.848,8.02
5.852,8.044
5.856,8.06
5.86,8.048
5.864,8.024
5.868,8.052
5.872,8.072
5.876,8.08
5.88,8.064
5.884,8.068
5.888,8.112
5.892,8.116
5.896,8.092
5.9,8.124
5.904,8.128
5.908,8.148
5.912,8.164
5.916,8.16
5.92,8.204
5.924,8.232
5.928,8.22
5.932,8.248
5.936,8.284
5.94,8.296
5.944,8.308
5.948,8.332
5.952,8.404
5.956,8.44
5.96,8.472
5.964,8.504
5.968,8.572
5.972,8.612
5.976,8.668
5.98,8.68
5.984,8.72
5.988,8.764
5.992,8.796
5.996,8.816
6,8.824
6.004,8.84
6.008,8.812
6.012,8.764
6.016,8.724
6.02,8.696
6.024,8.628
6.028,8.548
6.032,8.476
6.036,8.412
6.04,8.368
6.044,8.284
6.048,8.232
6.052,8.196
6.056,8.16
6.06,8.104
6.064,8.06
6.068,8.064
6.072,8.028
6.076,8.012
6.08,8.004
6.084,8.016
6.088,7.992
6.092,8.028
6.096,7.968
6.1,8
6.104,7.984
6.108,7.992
6.112,7.972
6.116,7.992
6.12,8.02
6.124,8.02
6.128,7.996
6.132,7.984
6.136,8.016
6.14,8.008
6.144,7.992
6.148,7.996
6.152,8.028
6.156,8.028
6.16,8.02
6.164,8
6.168,8.02
6.172,8.036
6.176,8.004
6.18,7.98
6.184,8
6.188,8.04
6.192,8.016
6.196,7.988
6.2,7.992
6.204,8.02
6.208,8.016
6.212,8.004
6.216,8.02
6.22,8.032
6.224,8.032
6.228,7.996
6.232,8.008
6.236,8.008
6.24,8.032
6.244,8
6.248,8.012
6.252,8.044
6.256,8.036
6.26,8.008
6.264,7.988
6.268,8.008
6.272,8.024
6.276,8.012
6.28,7.984
6.284,7.988
6.288,8.04
6.292,8.048
6.296,8.032
6.3,8.024
6.304,8.08
6.308,8.092
6.312,8.084
6.316,8.096
6.32,8.116
6.324,8.128
6.328,8.124
6.332,8.172
6.336,8.252
6.34,8.272
6.344,8.244
6.348,8.216
6.352,8.172
6.356,8.18
6.36,8.156
6.364,8.112
6.368,8.092
6.372,8.1
6.376,8.076
6.38,8.048
6.384,8.028
6.388,8.032
6.392,8.044
6.396,8.016
6.4,8.028
6.404,8.024
6.408,8.028
6.412,8
6.416,8.024
6.42,8.044
6.424,8.052
6.428,8.024
6.432,8.016
6.436,8.04
6.44,7.988
6.444,7.88
6.448,7.844
6.452,8.068
6.456,8.424
6.46,8.996
6.464,9.656
6.468,10.292
6.472,10.892
6.476,11.216
6.48,11.28
6.484,10.94
6.488,9.82
6.492,8.504
6.496,7.876
6.5,7.664
6.504,7.712
6.508,7.832
6.512,7.908
6.516,8
6.52,8.128
6.524,8.112
6.528,8.08
6.532,8.064
6.536,8.092
6.54,8.084
6.544,8.064
6.548,8.08
6.552,8.092
6.556,8.116
6.56,8.092
6.564,8.1
6.568,8.084
6.572,8.124
6.576,8.112
6.58,8.096
6.584,8.132
6.588,8.128
6.592,8.14
6.596,8.14
6.6,8.152
6.604,8.16
6.608,8.152
6.612,8.132
6.616,8.172
6.62,8.212
6.624,8.208
6.628,8.196
6.632,8.208
6.636,8.224
6.64,8.24
6.644,8.24
6.648,8.24
6.652,8.292
6.656,8.304
6.66,8.312
6.664,8.332
6.668,8.364
6.672,8.392
6.676,8.408
6.68,8.428
6.684,8.48
6.688,8.532
6.692,8.576
6.696,8.604
6.7,8.632
6.704,8.664
6.708,8.728
6.712,8.74
6.716,8.812
6.72,8.844
6.724,8.892
6.728,8.88
6.732,8.904
6.736,8.916
6.74,8.904
6.744,8.844
6.748,8.808
6.752,8.772
6.756,8.708
6.76,8.62
6.764,8.556
6.768,8.488
6.772,8.448
6.776,8.376
6.78,8.304
6.784,8.264
6.788,8.228
6.792,8.192
6.796,8.168
6.8,8.124
6.804,8.108
6.808,8.092
6.812,8.088
6.816,8.048
6.82,8.096
6.824,8.084
6.828,8.064
6.832,8.036
6.836,8.068
6.84,8.072
6.844,8.056
6.848,8.064
6.852,8.096
6.856,8.112
6.86,8.092
6.864,8.056
6.868,8.1
6.872,8.076
6.876,8.088
6.88,8.08
6.884,8.1
6.888,8.116
6.892,8.108
6.896,8.088
6.9,8.084
6.904,8.112
6.908,8.128
6.912,8.076
6.916,8.1
6.92,8.1
6.924,8.12
6.928,8.08
6.932,8.1
6.936,8.128
6.94,8.104
6.944,8.096
6.948,8.092
6.952,8.1
6.956,8.108
6.96,8.096
6.964,8.084
6.968,8.096
6.972,8.092
6.976,8.096
6.98,8.056
6.984,8.08
6.988,8.112
6.992,8.1
6.996,8.072
7,8.084
7.004,8.072
7.008,8.08
7.012,8.072
7.016,8.056
7.02,8.092
7.024,8.096
7.028,8.088
7.032,8.064
7.036,8.076
7.04,8.076
7.044,8.064
7.048,8.088
7.052,8.092
7.056,8.104
7.06,8.08
7.064,8.084
7.068,8.1
7.072,8.112
7.076,8.14
7.08,8.152
7.084,8.16
7.088,8.168
7.092,8.212
7.096,8.228
7.1,8.28
7.104,8.324
7.108,8.324
7.112,8.276
7.116,8.212
7.12,8.216
7.124,8.204
7.128,8.172
7.132,8.156
7.136,8.128
7.14,8.156
7.144,8.108
7.148,8.072
7.152,8.068
7.156,8.092
7.16,8.072
7.164,8.044
7.168,8.076
7.172,8.056
7.176,8.076
7.18,8.064
7.184,8.06
7.188,8.096
7.192,8.096
7.196,8.06
7.2,8.06
7.204,8.052
7.208,7.94
7.212,7.924
7.216,8.092
7.22,8.444
7.224,8.988
7.228,9.576
7.232,10.204
7.236,10.828
7.24,11.232
7.244,11.3
7.248,11.052
7.252,9.996
7.256,8.684
7.26,7.972
7.264,7.692
7.268,7.74
7.272,7.872
7.276,7.94
7.28,8.04
7.284,8.136
7.288,8.176
7.292,8.148
7.296,8.124
7.3,8.112
7.304,8.136
7.308,8.14
7.312,8.12
7.316,8.128
7.32,8.148
7.324,8.156
7.328,8.128
7.332,8.152
7.336,8.132
7.34,8.156
7.344,8.136
7.348,8.156
7.352,8.144
7.356,8.192
7.36,8.184
7.364,8.172
7.368,8.192
7.372,8.224
7.376,8.188
7.38,8.188
7.384,8.228
7.388,8.24
7.392,8.26
7.396,8.228
7.4,8.256
7.404,8.272
7.408,8.292
7.412,8.268
7.416,8.308
7.42,8.364
7.424,8.356
7.428,8.368
7.432,8.388
7.436,8.432
7.44,8.472
7.444,8.492
7.448,8.5
7.452,8.564
7.456,8.624
7.46,8.636
7.464,8.68
7.468,8.716
7.472,8.768
7.476,8.808
7.48,8.848
7.484,8.88
7.488,8.936
7.492,8.988
7.496,8.98
7.5,8.992
7.504,8.972
7.508,8.964
7.512,8.884
7.516,8.844
7.52,8.772
7.524,8.728
7.528,8.652
7.532,8.548
7.536,8.516
7.54,8.464
7.544,8.36
7.548,8.304
7.552,8.268
7.556,8.26
7.56,8.216
7.564,8.172
7.568,8.172
7.572,8.156
7.576,8.136
7.58,8.096
7.584,8.108
7.588,8.14
7.592,8.116
7.596,8.092
7.6,8.064
7.604,8.068
7.608,8.064
7.612,8.004
7.616,8.008
7.62,8.008
7.624,7.992
7.628,7.928
7.632,7.84
7.636,7.84
7.64,7.872
7.644,7.872
7.648,7.94
7.652,7.94
7.656,7.936
7.66,7.844
7.664,7.704
7.668,7.624
7.672,7.692
7.676,7.78
7.68,7.892
7.684,7.968
7.688,8.004
7.692,7.976
7.696,7.988
7.7,7.988
7.704,8.016
7.708,7.992
7.712,7.992
7.716,8
7.72,8.012
7.724,8.044
7.728,8.032
7.732,8.032
7.736,8.032
7.74,8.04
7.744,8.02
7.748,8.024
7.752,8.032
7.756,8.06
7.76,8.052
7.764,8.036
7.768,8.04
7.772,8.056
7.776,8.032
7.78,8.024
7.784,8.024
7.788,8.032
7.792,8.052
7.796,8.02
7.8,8.004
7.804,8.044
7.808,8.048
7.812,8.024
7.816,8.036
7.82,8.052
7.824,8.08
7.828,8.056
7.832,8.052
7.836,8.088
7.84,8.1
7.844,8.088
7.848,8.104
7.852,8.136
7.856,8.148
7.86,8.176
7.864,8.212
7.868,8.28
7.872,8.32
7.876,8.288
7.88,8.232
7.884,8.168
7.888,8.188
7.892,8.18
7.896,8.088
7.9,8.104
7.904,8.104
7.908,8.076
7.912,8.048
7.916,8.04
7.92,8.036
7.924,8.032
7.928,8.016
7.932,8.024
7.936,8.016
7.94,8.024
7.944,8.02
7.948,8.008
7.952,8.032
7.956,8.04
7.96,8.004
7.964,8.016
7.968,8.012
7.972,7.964
7.976,7.856
7.98,7.856
7.984,8.16
7.988,8.556
7.992,9.2
7.996,9.82
8,10.48
8.004,11.072
8.008,11.244
8.012,11.236
8.016,10.62
8.02,9.308
8.024,8.172
8.028,7.692
8.032,7.532
8.036,7.62
8.04,7.772
8.044,7.868
8.048,8.004
8.052,8.096
8.056,8.1
8.06,8.068
8.064,8.044
8.068,8.048
8.072,8.068
8.076,8.052
8.08,8.044
8.084,8.064
8.088,8.084
8.092,8.088
8.096,8.06
8.1,8.08
8.104,8.088
8.108,8.084
8.112,8.084
8.116,8.092
8.12,8.136
8.124,8.124
8.128,8.104
8.132,8.112
8.136,8.128
8.14,8.144
8.144,8.132
8.148,8.14
8.152,8.172
8.156,8.176
8.16,8.184
8.164,8.168
8.168,8.216
8.172,8.204
8.176,8.24
8.18,8.228
8.184,8.248
8.188,8.288
8.192,8.308
8.196,8.316
8.2,8.328
8.204,8.368
8.208,8.412
8.212,8.416
8.216,8.456
8.22,8.524
8.224,8.572
8.228,8.592
8.232,8.636
8.236,8.684
8.24,8.724
8.244,8.748
8.248,8.78
8.252,8.836
8.256,8.876
8.26,8.888
8.264,8.892
8.268,8.92
8.272,8.908
8.276,8.856
8.28,8.792
8.284,8.752
8.288,8.716
8.292,8.664
8.296,8.56
8.3,8.496
8.304,8.432
8.308,8.368
8.312,8.308
8.316,8.252
8.32,8.216
8.324,8.212
8.328,8.136
8.332,8.108
8.336,8.104
8.34,8.112
8.344,8.068
8.348,8.08
8.352,8.068
8.356,8.076
8.36,8.056
8.364,8.044
8.368,8.064
8.372,8.068
8.376,8.06
8.38,8.032
8.384,8.044
8.388,8.064
8.392,8.076
8.396,8.048
8.4,8.06
8.404,8.064
8.408,8.06
8.412,8.048
8.416,8.032
8.42,8.088
8.424,8.1
8.428,8.092
8.432,8.1
8.436,8.084
8.44,8.068
8.444,8.04
8.448,8.064
8.452,8.068
8.456,8.064
8.46,8.04
8.464,8.052
8.468,8.056
8.472,8.08
8.476,8.056
8.48,8.052
8.484,8.052
8.488,8.048
8.492,8.08
8.496,8.052
8.5,8.064
8.504,8.052
8.508,8.048
8.512,8.032
8.516,8.036
8.52,8.04
8.524,8.044
8.528,8.032
8.532,8.016
8.536,8.032
8.54,8.048
8.544,8.032
8.548,8.012
8.552,8.048
8.556,8.06
8.56,8.056
8.564,8.036
8.568,8.048
8.572,8.056
8.576,8.024
8.58,8.016
8.584,8.024
8.588,8.064
8.592,8.032
8.596,8.036
8.6,8.044
8.604,8.076
8.608,8.08
8.612,8.072
8.616,8.08
8.62,8.128
8.624,8.136
8.628,8.12
8.632,8.128
8.636,8.176
8.64,8.212
8.644,8.252
8.648,8.276
8.652,8.284
8.656,8.252
8.66,8.18
8.664,8.144
8.668,8.136
8.672,8.112
8.676,8.088
8.68,8.064
8.684,8.068
8.688,8.06
8.692,8.016
8.696,8.012
8.7,8.016
8.704,8.024
8.708,8.024
8.712,7.992
8.716,7.996
8.72,8.02
8.724,7.988
8.728,8.008
8.732,8.02
8.736,8.028
8.74,8.004
8.744,8
8.748,7.944
8.752,7.86
8.756,7.864
8.76,8.1
8.764,8.424
8.768,9.052
8.772,9.724
8.776,10.356
8.78,10.932
8.784,11.216
8.788,11.272
8.792,10.864
8.796,9.584
8.8,8.312
8.804,7.756
8.808,7.552
8.812,7.572
8.816,7.7
8.82,7.848
8.824,7.992
8.828,8.076
8.832,8.072
8.836,8.052
8.84,8.072
8.844,8.048
8.848,8.032
8.852,8.04
8.856,8.068
8.86,8.048
8.864,8.044
8.868,8.068
8.872,8.068
8.876,8.052
8.88,8.056
8.884,8.06
8.888,8.088
8.892,8.112
8.896,8.084
8.9,8.092
8.904,8.108
8.908,8.1
8.912,8.104
8.916,8.112
8.92,8.152
8.924,8.164
8.928,8.148
8.932,8.144
8.936,8.14
8.94,8.192
8.944,8.172
8.948,8.184
8.952,8.208
8.956,8.236
8.96,8.236
8.964,8.244
8.968,8.284
8.972,8.308
8.976,8.304
8.98,8.336
8.984,8.352
8.988,8.428
8.992,8.44
8.996,8.472
9,8.516
9.004,8.564
9.008,8.58
9.012,8.656
9.016,8.664
9.02,8.748
9.024,8.776
9.028,8.792
9.032,8.844
9.036,8.868
9.04,8.9
9.044,8.888
9.048,8.888
9.052,8.876
9.056,8.852
9.06,8.76
9.064,8.66
9.068,8.632
9.072,8.576
9.076,8.488
9.08,8.396
9.084,8.372
9.088,8.3
9.092,8.276
9.096,8.18
9.1,8.14
9.104,8.152
9.108,8.124
9.112,8.08
9.116,8.072
9.12,8.072
9.124,8.048
9.128,8.048
9.132,8.036
9.136,8.032
9.14,8.044
9.144,8.028
9.148,8.016
9.152,8.036
9.156,8.04
9.16,8.048
9.164,8.048
9.168,8.036
9.172,8.032
9.176,8.048
9.18,8.02
9.184,8.012
9.188,8.072
9.192,8.056
9.196,8.024
9.2,8.028
9.204,8.036
9.208,8.048
9.212,8.024
9.216,8.04
9.22,8.052
9.224,8.064
9.228,8.052
9.232,8.056
9.236,8.064
9.24,8.052
9.244,8.04
9.248,8.024
9.252,8.04
9.256,8.04
9.26,8.064
9.264,8.056
9.268,8.06
9.272,8.016
9.276,8.004
9.28,7.984
9.284,8.012
9.288,8.032
9.292,8.02
9.296,7.996
9.3,7.996
9.304,7.992
9.308,8.028
9.312,7.98
9.316,7.972
9.32,8.02
9.324,8.012
9.328,8.008
9.332,7.96
9.336,7.984
9.34,7.992
9.344,7.988
9.348,7.98
9.352,8.004
9.356,8.028
9.36,7.98
9.364,7.976
9.368,7.956
9.372,7.988
9.376,7.976
9.38,7.972
9.384,7.972
9.388,8.004
9.392,8.012
9.396,8.004
9.4,7.984
9.404,7.972
9.408,8.016
9.412,8.008
9.416,8.024
9.42,8.064
9.424,8.096
9.428,8.084
9.432,8.12
9.436,8.184
9.44,8.208
9.444,8.204
9.448,8.212
9.452,8.172
9.456,8.136
9.46,8.112
9.464,8.084
9.468,8.04
9.472,8.02
9.476,8.016
9.48,7.988
9.484,7.98
9.488,7.988
9.492,7.968
9.496,7.952
9.5,7.956
9.504,7.984
9.508,7.96
9.512,7.936
9.516,7.936
9.52,7.968
9.524,7.964
9.528,7.96
9.532,7.932
9.536,7.964
9.54,7.928
9.544,7.832
9.548,7.76
9.552,7.896
9.556,8.192
9.56,8.636
9.564,9.32
9.568,9.932
9.572,10.596
9.576,11.116
9.58,11.184
9.584,11.104
9.588,10.26
9.592,8.876
9.596,7.9
9.6,7.552
9.604,7.468
9.608,7.588
9.612,7.724
9.616,7.812
9.62,7.96
9.624,8.04
9.628,8
9.632,7.976
9.636,7.98
9.64,7.968
9.644,7.96
9.648,7.968
9.652,7.96
9.656,7.988
9.66,7.992
9.664,7.96
9.668,8
9.672,8.028
9.676,8.004
9.68,7.968
9.684,7.996
9.688,8.02
9.692,8.02
9.696,8.008
9.7,8.02
9.704,8.068
9.708,8.06
9.712,8.02
9.716,8.048
9.72,8.084
9.724,8.112
9.728,8.096
9.732,8.092
9.736,8.116
9.74,8.144
9.744,8.152
9.748,8.128
9.752,8.176
9.756,8.216
9.76,8.204
9.764,8.216
9.768,8.248
9.772,8.292
9.776,8.3
9.78,8.304
9.784,8.34
9.788,8.42
9.792,8.432
9.796,8.432
9.8,8.496
9.804,8.58
9.808,8.588
9.812,8.612
9.816,8.632
9.82,8.72
9.824,8.756
9.828,8.764
9.832,8.78
9.836,8.828
9.84,8.84
9.844,8.804
9.848,8.76
9.852,8.724
9.856,8.696
9.86,8.616
9.864,8.56
9.868,8.46
9.872,8.416
9.876,8.376
9.88,8.272
9.884,8.188
9.888,8.18
9.892,8.12
9.896,8.108
9.9,8.048
9.904,8.06
9.908,8.02
9.912,8.02
9.916,7.968
9.92,7.976
9.924,7.968
9.928,7.984
9.932,7.948
9.936,7.952
9.94,7.96
9.944,7.94
9.948,7.944
9.952,7.94
9.956,7.952
9.96,7.968
9.964,7.932
9.968,7.92
9.972,7.96
9.976,7.948
9.98,7.936
9.984,7.956
9.988,7.972
9.992,7.976
9.996,7.98
10,7.956
10.004,7.948
10.008,7.984
10.012,7.94
10.016,7.936
10.02,7.972
10.024,7.972
10.028,7.976
10.032,7.944
10.036,7.936
10.04,7.96
10.044,7.968
10.048,7.94
10.052,7.952
10.056,7.976
10.06,7.984
10.064,7.96
10.068,7.956
10.072,7.944
10.076,7.956
10.08,7.932
10.084,7.944
10.088,7.96
10.092,7.936
10.096,7.96
10.1,7.932
10.104,7.94
10.108,7.952
10.112,7.936
10.116,7.924
10.12,7.94
10.124,7.952
10.128,7.936
10.132,7.948
10.136,7.932
10.14,7.976
10.144,7.948
10.148,7.96
10.152,7.988
10.156,8.02
10.16,8.008
10.164,8.024
10.168,8.068
10.172,8.108
10.176,8.176
10.18,8.172
10.184,8.16
10.188,8.132
10.192,8.1
10.196,8.068
10.2,8.032
10.204,8.016
10.208,7.988
10.212,7.984
10.216,7.944
10.22,7.936
10.224,7.932
10.228,7.916
10.232,7.924
10.236,7.924
10.24,7.924
10.244,7.912
10.248,7.868
10.252,7.912
10.256,7.92
10.26,7.92
10.264,7.892
10.268,7.892
10.272,7.916
10.276,7.9
10.28,7.832
10.284,7.72
10.288,7.736
10.292,7.984
10.296,8.36
10.3,9.06
10.304,9.78
10.308,10.404
10.312,10.984
10.316,11.132
10.32,11.132
10.324,10.484
10.328,9.14
10.332,8.092
10.336,7.688
10.34,7.544
10.344,7.568
10.348,7.696
10.352,7.764
10.356,7.868
10.36,7.984
10.364,7.98
10.368,7.948
10.372,7.96
10.376,7.924
10.38,7.936
10.384,7.936
10.388,7.976
10.392,7.964
10.396,7.968
10.4,7.964
10.404,7.964
10.408,7.984
10.412,7.98
10.416,7.976
10.42,8
10.424,8.04
10.428,8.028
10.432,8.024
10.436,8.04
10.44,8.008
10.444,8.008
10.448,8.008
10.452,8.048
10.456,8.084
10.46,8.076
10.464,8.08
10.468,8.08
10.472,8.108
10.476,8.128
10.48,8.116
10.484,8.108
10.488,8.188
10.492,8.196
10.496,8.188
10.5,8.212
10.504,8.252
10.508,8.264
10.512,8.284
10.516,8.292
10.52,8.352
10.524,8.404
10.528,8.436
10.532,8.44
10.536,8.492
10.54,8.54
10.544,8.576
10.548,8.6
10.552,8.64
10.556,8.716
10.56,8.736
10.564,8.756
10.568,8.78
10.572,8.824
10.576,8.788
10.58,8.788
10.584,8.744
10.588,8.728
10.592,8.628
10.596,8.572
10.6,8.512
10.604,8.464
10.608,8.4
10.612,8.344
10.616,8.268
10.62,8.212
10.624,8.208
10.628,8.12
10.632,8.1
10.636,8.076
10.64,8.048
10.644,8.036
10.648,8.024
10.652,8.028
10.656,8.02
10.66,8.02
10.664,8.008
10.668,8.008
10.672,8.024
10.676,8.012
10.68,8.008
10.684,7.996
10.688,8.032
10.692,8.02
10.696,8.008
10.7,8.024
10.704,8.024
10.708,8.04
10.712,8.008
10.716,8.02
10.72,8.024
10.724,8.032
10.728,8.032
10.732,8.024
10.736,8.032
10.74,8.04
10.744,8.024
10.748,8.008
10.752,8.004
10.756,8.044
10.76,8.024
10.764,8.028
10.768,8.012
10.772,8.028
10.776,8.028
10.78,7.992
10.784,8.016
10.788,8.012
10.792,8.008
10.796,8.016
10.8,8.004
10.804,8.024
10.808,7.992
10.812,8.024
10.816,7.98
10.82,8.028
10.824,8.02
10.828,8.004
10.832,7.98
10.836,8.008
10.84,8.02
10.844,8.012
10.848,7.976
10.852,7.988
10.856,8
10.86,8.024
10.864,7.996
10.868,8.004
10.872,8.02
10.876,8.032
10.88,8.028
10.884,8.036
10.888,8.084
10.892,8.1
10.896,8.096
10.9,8.092
10.904,8.124
10.908,8.2
10.912,8.232
10.916,8.22
10.92,8.22
10.924,8.2
10.928,8.112
10.932,8.096
10.936,8.1
10.94,8.068
10.944,8.044
10.948,8.032
10.952,8.064
10.956,8.02
10.96,8.004
10.964,7.964
10.968,7.952
10.972,7.988
10.976,7.98
10.98,7.96
10.984,7.96
10.988,7.984
10.992,7.988
10.996,7.96
11,7.976
11.004,7.968
11.008,7.976
11.012,7.968
11.016,7.9
11.02,7.832
11.024,7.884
11.028,8.14
11.032,8.528
11.036,9.128
11.04,9.74
11.044,10.384
11.048,10.972
11.052,11.168
11.056,11.236
11.06,10.62
11.064,9.304
11.068,8.196
11.072,7.74
11.076,7.596
11.08,7.664
11.084,7.772
11.088,7.908
11.092,8.004
11.096,8.048
11.1,8.028
11.104,8.02
11.108,8.02
11.112,8.012
11.116,7.992
11.12,8.008
11.124,8.028
11.128,8.028
11.132,8.016
11.136,8.012
11.14,8.036
11.144,8.036
11.148,8.036
11.152,8.052
11.156,8.068
11.16,8.076
11.164,8.072
11.168,8.064
11.172,8.088
11.176,8.088
11.18,8.052
11.184,8.088
11.188,8.108
11.192,8.116
11.196,8.124
11.2,8.124
11.204,8.14
11.208,8.168
11.212,8.164
11.216,8.168
11.22,8.188
11.224,8.232
11.228,8.252
11.232,8.252
11.236,8.272
11.24,8.316
11.244,8.32
11.248,8.336
11.252,8.384
11.256,8.432
11.26,8.464
11.264,8.484
11.268,8.52
11.272,8.552
11.276,8.616
11.28,8.64
11.284,8.688
11.288,8.736
11.292,8.796
11.296,8.804
11.3,8.832
11.304,8.868
11.308,8.888
11.312,8.9
11.316,8.868
11.32,8.848
11.324,8.812
11.328,8.736
11.332,8.656
11.336,8.592
11.34,8.536
11.344,8.444
11.348,8.376
11.352,8.328
11.356,8.284
11.36,8.216
11.364,8.176
11.368,8.128
11.372,8.116
11.376,8.076
11.38,8.056
11.384,8.048
11.388,8.048
11.392,8.06
11.396,8.044
11.4,8.02
11.404,8.044
11.408,8.032
11.412,8.016
11.416,8.028
11.42,8.024
11.424,8.052
11.428,8.02
11.432,8.024
11.436,8.028
11.44,8.048
11.444,8.024
11.448,8.032
11.452,8.036
11.456,8.048
11.46,8.044
11.464,8.032
11.468,8.032
11.472,8.036
11.476,8.048
11.48,8.016
11.484,8.02
11.488,8.06
11.492,8.028
11.496,8.032
11.5,8.028
11.504,8
11.508,8.032
11.512,8.012
11.516,8.012
11.52,8.036
11.524,8.048
11.528,8.032
11.532,8
11.536,8.012
11.54,8.012
11.544,8.008
11.548,8.008
11.552,7.992
11.556,8.008
11.56,8.012
11.564,8.008
11.568,8.012
11.572,7.996
11.576,8.004
11.58,7.988
11.584,8
11.588,8.004
11.592,8
11.596,7.996
11.6,7.968
11.604,7.984
11.608,7.996
11.612,7.98
11.616,7.988
11.62,7.984
11.624,7.996
11.628,7.992
11.632,7.984
11.636,7.988
11.64,8.028
11.644,8.004
11.648,8.008
11.652,8.04
11.656,8.064
11.66,8.08
11.664,8.068
11.668,8.064
11.672,8.12
11.676,8.16
11.68,8.212
11.684,8.22
11.688,8.244
11.692,8.192
11.696,8.116
11.7,8.112
11.704,8.092
11.708,8.084
11.712,8.052
11.716,8.048
11.72,8.016
11.724,8.024
11.728,7.984
11.732,7.964
11.736,7.952
11.74,7.956
11.744,7.952
11.748,7.94
11.752,7.968
11.756,7.948
11.76,7.96
11.764,7.956
11.768,7.96
11.772,7.948
11.776,7.956
11.78,7.952
11.784,7.912
11.788,7.804
11.792,7.86
11.796,8.044
11.8,8.404
11.804,9.032
11.808,9.66
11.812,10.272
11.816,10.896
11.82,11.164
11.824,11.212
11.828,10.764
11.832,9.488
11.836,8.244
11.84,7.676
11.844,7.472
11.848,7.54
11.852,7.688
11.856,7.82
11.86,7.956
11.864,8.008
11.868,7.972
11.872,8.004
11.876,7.976
11.88,7.968
11.884,7.94
11.888,7.996
11.892,8.012
11.896,7.968
11.9,7.98
11.904,8.008
11.908,8.012
11.912,7.992
11.916,8
11.92,8.008
11.924,8.04
11.928,8.024
11.932,8.028
11.936,8.048
11.94,8.052
11.944,8.06
11.948,8.048
11.952,8.04
11.956,8.084
11.96,8.088
11.964,8.092
11.968,8.112
11.972,8.112
11.976,8.128
11.98,8.124
11.984,8.14
11.988,8.16
11.992,8.196
11.996,8.18
12,8.212
12.004,8.244
12.008,8.248
12.012,8.264
12.016,8.296
12.02,8.324
12.024,8.38
12.028,8.416
12.032,8.42
12.036,8.48
12.04,8.5
12.044,8.552
12.048,8.572
12.052,8.632
12.056,8.672
12.06,8.728
12.064,8.752
12.068,8.792
12.072,8.812
12.076,8.828
12.08,8.836
12.084,8.828
12.088,8.82
12.092,8.788
12.096,8.696
12.1,8.624
12.104,8.584
12.108,8.492
12.112,8.424
12.116,8.368
12.12,8.308
12.124,8.256
12.128,8.2
12.132,8.14
12.136,8.108
12.14,8.084
12.144,8.04
12.148,8.004
12.152,7.996
12.156,8.024
12.16,7.992
12.164,7.976
12.168,7.956
12.172,7.988
12.176,7.976
12.18,7.98
12.184,7.968
12.188,7.976
12.192,7.988
12.196,7.964
12.2,7.96
12.204,7.992
12.208,7.976
12.212,7.984
12.216,7.968
12.22,7.976
12.224,7.996
12.228,8
12.232,7.98
12.236,7.988
12.24,8.004
12.244,7.992
12.248,7.972
12.252,8.016
12.256,8.024
12.26,8.016
12.264,8.012
12.268,8.032
12.272,7.984
12.276,8.016
12.28,8
12.284,7.952
12.288,7.984
12.292,8.04
12.296,8.012
12.3,7.996
12.304,7.984
12.308,7.956
12.312,8.012
12.316,7.988
12.32,7.956
12.324,8
12.328,8.044
12.332,8.036
12.336,7.988
12.34,7.976
12.344,7.964
12.348,7.904
12.352,7.94
12.356,7.972
12.36,8.008
12.364,7.952
12.368,7.956
12.372,7.88
12.376,7.868
12.38,7.924
12.384,7.92
12.388,7.944
12.392,7.908
12.396,7.888
12.4,7.872
12.404,7.932
12.408,7.972
12.412,7.956
12.416,7.928
12.42,7.94
12.424,7.924
12.428,7.876
12.432,7.972
12.436,8.004
12.44,7.928
12.444,7.94
12.448,7.88
12.452,8.008
12.456,8.052
12.46,8.152
12.464,8.14
12.468,8.08
12.472,8.208
12.476,8.244
12.48,8.104
12.484,8.08
12.488,8.12
12.492,8.096
12.496,7.916
12.5,7.928
12.504,8.004
12.508,8.032
12.512,7.976
12.516,7.872
12.52,7.776
12.524,7.808
12.528,7.888
12.532,7.888
12.536,7.94
12.54,7.996
12.544,7.768
12.548,7.724
12.552,7.848
12.556,7.924
12.56,7.928
12.564,7.888
12.568,7.844
12.572,7.796
12.576,7.752
12.58,7.908
12.584,8.288
12.588,8.988
12.592,9.648
12.596,10.168
12.6,10.804
12.604,11.092
12.608,11.188
12.612,10.756
12.616,9.436
12.62,8.144
12.624,7.568
12.628,7.32
12.632,7.376
12.636,7.596
12.64,7.76
12.644,7.86
12.648,7.892
12.652,7.896
12.656,7.928
12.66,7.912
12.664,7.9
12.668,7.912
12.672,7.916
12.676,7.9
12.68,7.896
12.684,7.936
12.688,7.964
12.692,7.968
12.696,7.916
12.7,7.864
12.704,7.888
12.708,7.916
12.712,7.94
12.716,7.968
12.72,8.008
12.724,7.948
12.728,7.9
12.732,7.924
12.736,7.968
12.74,7.96
12.744,7.972
12.748,7.968
12.752,8.008
12.756,8.028
12.76,8.04
12.764,8.024
12.768,8.08
12.772,8.112
12.776,8.068
12.78,8.04
12.784,8.108
12.788,8.144
12.792,8.172
12.796,8.188
12.8,8.188
12.804,8.256
12.808,8.284
12.812,8.316
12.816,8.344
12.82,8.408
12.824,8.456
12.828,8.468
12.832,8.456
12.836,8.544
12.84,8.58
12.844,8.684
12.848,8.756
12.852,8.828
12.856,8.784
12.86,8.716
12.864,8.636
12.868,8.704
12.872,8.724
12.876,8.692
12.88,8.584
12.884,8.548
12.888,8.512
12.892,8.44
12.896,8.348
12.9,8.228
12.904,8.236
12.908,8.176
12.912,8.104
12.916,8.04
12.92,8.036
12.924,8.024
12.928,7.956
12.932,7.928
12.936,7.976
12.94,7.948
12.944,7.964
12.948,7.956
12.952,7.864
12.956,7.84
12.96,7.9
12.964,7.952
12.968,8.008
12.972,7.952
12.976,7.78
12.98,7.768
12.984,7.836
12.988,7.884
12.992,7.88
12.996,7.888
13,7.988
13.004,7.912
13.008,7.904
13.012,7.924
13.016,7.856
13.02,7.844
13.024,7.86
13.028,7.856
13.032,7.88
13.036,7.944
13.04,7.9
13.044,7.872
13.048,7.852
13.052,7.876
13.056,7.972
13.06,8.004
13.064,7.828
13.068,7.796
13.072,7.9
13.076,7.884
13.08,7.856
13.084,7.912
13.088,7.912
13.092,7.848
13.096,7.82
13.1,7.884
13.104,7.924
13.108,7.928
13.112,7.832
13.116,7.824
13.12,7.872
13.124,7.876
13.128,7.868
13.132,7.836
13.136,7.88
13.14,7.872
13.144,7.856
13.148,7.872
13.152,7.884
13.156,7.94
13.16,7.968
13.164,7.94
13.168,7.932
13.172,7.92
13.176,7.928
13.18,7.988
13.184,7.972
13.188,8.016
13.192,8.104
13.196,8.08
13.2,8.088
13.204,7.996
13.208,7.96
13.212,7.912
13.216,7.952
13.22,7.952
13.224,7.88
13.228,7.896
13.232,7.864
13.236,7.868
13.24,7.856
13.244,7.864
13.248,7.88
13.252,7.856
13.256,7.896
13.26,7.736
13.264,7.732
13.268,7.816
13.272,7.828
13.276,7.86
13.28,7.82
13.284,7.744
13.288,7.792
13.292,7.792
13.296,7.764
13.3,7.688
13.304,7.688
13.308,7.896
13.312,8.24
13.316,9
13.32,9.756
13.324,10.372
13.328,10.824
13.332,11.012
13.336,11.012
13.34,10.42
13.344,9.068
13.348,7.992
13.352,7.58
13.356,7.432
13.36,7.492
13.364,7.616
13.368,7.68
13.372,7.808
13.376,7.872
13.38,7.888
13.384,7.868
13.388,7.856
13.392,7.904
13.396,7.872
13.4,7.884
13.404,7.892
13.408,7.96
13.412,7.848
13.416,7.856
13.42,7.912
13.424,7.864
13.428,7.868
13.432,7.908
13.436,7.872
13.44,7.912
13.444,7.896
13.448,7.896
13.452,7.928
13.456,7.976
13.46,8
13.464,8.016
13.468,8.02
13.472,7.984
13.476,7.956
13.48,7.924
13.484,7.964
13.488,7.976
13.492,8
13.496,8.004
13.5,8.04
13.504,8.012
13.508,8.056
13.512,8.092
13.516,8.108
13.52,8.188
13.524,8.22
13.528,8.112
13.532,8.124
13.536,8.196
13.54,8.288
13.544,8.32
13.548,8.308
13.552,8.34
13.556,8.408
13.56,8.444
13.564,8.48
13.568,8.532
13.572,8.588
13.576,8.656
13.58,8.624
13.584,8.584
13.588,8.688
13.592,8.668
13.596,8.664
13.6,8.576
13.604,8.608
13.608,8.544
13.612,8.48
13.616,8.404
13.62,8.296
13.624,8.312
13.628,8.188
13.632,8.088
13.636,8.044
13.64,7.988
13.644,7.98
13.648,7.964
13.652,7.968
13.656,7.984
13.66,7.948
13.664,7.828
13.668,7.868
13.672,7.9
13.676,7.892
13.68,7.88
13.684,7.868
13.688,7.844
13.692,7.852
13.696,7.86
13.7,7.912
13.704,7.868
13.708,7.86
13.712,7.88
13.716,7.832
13.72,7.852
13.724,7.856
13.728,7.82
13.732,7.844
13.736,7.864
13.74,7.912
13.744,7.92
13.748,7.904
13.752,7.896
13.756,7.892
13.76,7.86
13.764,7.864
13.768,7.888
13.772,7.884
13.776,7.888
13.78,7.888
13.784,7.844
13.788,7.832
13.792,7.884
13.796,7.868
13.8,7.88
13.804,7.896
13.808,7.908
13.812,7.9
13.816,7.852
13.82,7.848
13.824,7.872
13.828,7.836
13.832,7.848
13.836,7.884
13.84,7.864
13.844,7.888
13.848,7.912
13.852,7.932
13.856,7.848
13.86,7.8
13.864,7.82
13.868,7.912
13.872,7.9
13.876,7.864
13.88,7.892
13.884,7.96
13.888,8.004
13.892,7.936
13.896,7.928
13.9,7.984
13.904,8.064
13.908,8.084
13.912,8.06
13.916,8.012
13.92,7.992
13.924,7.948
13.928,7.924
13.932,7.868
13.936,7.864
13.94,7.852
13.944,7.836
13.948,7.82
13.952,7.824
13.956,7.832
13.96,7.796
13.964,7.768
13.968,7.816
13.972,7.844
13.976,7.856
13.98,7.804
13.984,7.712
13.988,7.768
13.992,7.792
13.996,7.776
14,7.788
14.004,7.8
14.008,7.772
14.012,7.66
14.016,7.672
14.02,7.892
14.024,8.224
14.028,8.796
14.032,9.484
14.036,10.14
14.04,10.752
14.044,10.976
14.048,10.964
14.052,10.56
14.056,9.376
14.06,8.168
14.064,7.62
14.068,7.424
14.072,7.492
14.076,7.556
14.08,7.672
14.084,7.784
14.088,7.872
14.092,7.892
14.096,7.852
14.1,7.764
14.104,7.792
14.108,7.824
14.112,7.82
14.116,7.82
14.12,7.852
14.124,7.836
14.128,7.844
14.132,7.828
14.136,7.876
14.14,7.856
14.144,7.84
14.148,7.836
14.152,7.872
14.156,7.928
14.16,7.832
14.164,7.832
14.168,7.852
14.172,7.872
14.176,7.884
14.18,7.892
14.184,7.92
14.188,7.952
14.192,7.96
14.196,7.944
14.2,7.972
14.204,7.988
14.208,7.976
14.212,7.976
14.216,8
14.22,8.064
14.224,8.068
14.228,8.088
14.232,8.156
14.236,8.216
14.24,8.3
14.244,8.296
14.248,8.052
14.252,8.032
14.256,8.204
14.26,8.268
14.264,8.316
14.268,8.332
14.272,8.424
14.276,8.444
14.28,8.46
14.284,8.56
14.288,8.604
14.292,8.652
14.296,8.652
14.3,8.636
14.304,8.628
14.308,8.656
14.312,8.644
14.316,8.632
14.32,8.552
14.324,8.46
14.328,8.372
14.332,8.264
14.336,8.128
14.34,8.108
14.344,8.076
14.348,8.02
14.352,8.016
14.356,7.988
14.36,7.888
14.364,7.804
14.368,7.82
14.372,7.816
14.376,7.84
14.38,7.84
14.384,7.812
14.388,7.836
14.392,7.796
14.396,7.7
14.4,7.684
14.404,7.756
14.408,7.772
14.412,7.752
14.416,7.796
14.42,7.856
14.424,7.828
14.428,7.772
14.432,7.788
14.436,7.784
14.44,7.808
14.444,7.8
14.448,7.796
14.452,7.86
14.456,7.92
14.46,7.896
14.464,7.836
14.468,7.824
14.472,7.816
14.476,7.816
14.48,7.8
14.484,7.832
14.488,7.864
14.492,7.852
14.496,7.812
14.5,7.828
14.504,7.82
14.508,7.824
14.512,7.8
14.516,7.808
14.52,7.816
14.524,7.804
14.528,7.808
14.532,7.816
14.536,7.872
14.54,7.9
14.544,7.872
14.548,7.824
14.552,7.8
14.556,7.768
14.56,7.848
14.564,7.772
14.568,7.692
14.572,7.768
14.576,7.824
14.58,7.876
14.584,7.808
14.588,7.788
14.592,7.884
14.596,7.92
14.6,7.912
14.604,7.972
14.608,7.864
14.612,7.824
14.616,7.936
14.62,8.012
14.624,8.052
14.628,7.98
14.632,7.948
14.636,7.996
14.64,7.992
14.644,7.944
14.648,7.856
14.652,7.832
14.656,7.756
14.66,7.76
14.664,7.724
14.668,7.7
14.672,7.784
14.676,7.824
14.68,7.78
14.684,7.788
14.688,7.716
14.692,7.776
14.696,7.772
14.7,7.712
14.704,7.736
14.708,7.784
14.712,7.764
14.716,7.776
14.72,7.776
14.724,7.8
14.728,7.72
14.732,7.628
14.736,7.652
14.74,7.964
14.744,8.336
14.748,8.904
14.752,9.56
14.756,10.216
14.76,10.784
14.764,10.972
14.768,11.044
14.772,10.44
14.776,9.168
14.78,7.968
14.784,7.516
14.788,7.384
14.792,7.48
14.796,7.56
14.8,7.672
14.804,7.776
14.808,7.868
14.812,7.856
14.816,7.832
14.82,7.856
14.824,7.844
14.828,7.844
14.832,7.828
14.836,7.84
14.84,7.864
14.844,7.84
14.848,7.844
14.852,7.86
14.856,7.884
14.86,7.88
14.864,7.856
14.868,7.856
14.872,7.884
14.876,7.892
14.88,7.892
14.884,7.876
14.888,7.916
14.892,7.908
14.896,7.9
14.9,7.904
14.904,7.924
14.908,7.932
14.912,7.956
14.916,7.94
14.92,7.96
14.924,7.968
14.928,8.004
14.932,8.004
14.936,8.008
14.94,8.036
14.944,8.02
14.948,8.088
14.952,8.068
14.956,8.164
14.96,8.152
14.964,8.168
14.968,8.196
14.972,8.24
14.976,8.276
14.98,8.304
14.984,8.352
14.988,8.412
14.992,8.488
14.996,8.496
15,8.496
15.004,8.576
15.008,8.636
15.012,8.644
15.016,8.66
15.02,8.712
15.024,8.72
15.028,8.648
15.032,8.62
15.036,8.584
15.04,8.512
15.044,8.44
15.048,8.376
15.052,8.324
15.056,8.268
15.06,8.196
15.064,8.124
15.068,8.064
15.072,8.032
15.076,7.988
15.08,7.936
15.084,7.916
15.088,7.916
15.092,7.912
15.096,7.852
15.1,7.84
15.104,7.852
15.108,7.844
15.112,7.828
15.116,7.804
15.12,7.832
15.124,7.828
15.128,7.828
15.132,7.808
15.136,7.816
15.14,7.828
15.144,7.844
15.148,7.816
15.152,7.84
15.156,7.84
15.16,7.852
15.164,7.848
15.168,7.824
15.172,7.844
15.176,7.852
15.18,7.84
15.184,7.856
15.188,7.864
15.192,7.88
15.196,7.848
15.2,7.84
15.204,7.832
15.208,7.868
15.212,7.86
15.216,7.864
15.22,7.884
15.224,7.892
15.228,7.86
15.232,7.856
15.236,7.888
15.24,7.896
15.244,7.896
15.248,7.924
15.252,8.008
15.256,8.128
15.26,8.208
15.264,8.232
15.268,7.856
15.272,7.716
15.276,7.952
15.28,7.844
15.284,7.78
15.288,7.972
15.292,7.84
15.296,7.64
15.3,7.66
15.304,7.788
15.308,7.884
15.312,7.936
15.316,8.004
15.32,7.96
15.324,7.932
15.328,7.928
15.332,7.964
15.336,8.048
15.34,7.96
15.344,7.936
15.348,7.968
15.352,7.892
15.356,7.98
15.36,7.944
15.364,7.892
15.368,7.896
15.372,7.912
15.376,7.876
15.38,7.84
15.384,7.828
15.388,7.852
15.392,7.84
15.396,7.78
15.4,7.752
15.404,7.768
15.408,7.78
15.412,7.768
15.416,7.752
15.42,7.78
15.424,7.776
15.428,7.768
15.432,7.768
15.436,7.748
15.44,7.784
15.444,7.768
15.448,7.74
15.452,7.696
15.456,7.652
15.46,7.616
15.464,7.756
15.468,8.06
15.472,8.62
15.476,9.268
15.48,9.86
15.484,10.5
15.488,10.948
15.492,11.032
15.496,10.828
15.5,9.788
15.504,8.428
15.508,7.64
15.512,7.356
15.516,7.336
15.52,7.504
15.524,7.668
15.528,7.78
15.532,7.868
15.536,7.88
15.54,7.86
15.544,7.824
15.548,7.8
15.552,7.824
15.556,7.852
15.56,7.852
15.564,7.856
15.568,7.836
15.572,7.844
15.576,7.876
15.58,7.844
15.584,7.856
15.588,7.888
15.592,7.904
15.596,7.872
15.6,7.864
15.604,7.876
15.608,7.912
15.612,7.896
15.616,7.9
15.62,7.936
15.624,7.952
15.628,7.94
15.632,7.94
15.636,7.936
15.64,7.972
15.644,7.98
15.648,7.984
15.652,8.012
15.656,8.044
15.66,8.032
15.664,8.048
15.668,8.08
15.672,8.096
15.676,8.12
15.68,8.112
15.684,8.144
15.688,8.2
15.692,8.188
15.696,8.228
15.7,8.264
15.704,8.328
15.708,8.36
15.712,8.388
15.716,8.452
15.72,8.468
15.724,8.556
15.728,8.584
15.732,8.604
15.736,8.628
15.74,8.704
15.744,8.684
15.748,8.7
15.752,8.696
15.756,8.668
15.76,8.604
15.764,8.536
15.768,8.488
15.772,8.44
15.776,8.38
15.78,8.308
15.784,8.236
15.788,8.192
15.792,8.14
15.796,8.064
15.8,7.996
15.804,8.004
15.808,7.968
15.812,7.916
15.816,7.872
15.82,7.884
15.824,7.896
15.828,7.884
15.832,7.852
15.836,7.84
15.84,7.872
15.844,7.852
15.848,7.852
15.852,7.824
15.856,7.864
15.86,7.856
15.864,7.84
15.868,7.836
15.872,7.832
15.876,7.856
15.88,7.848
15.884,7.852
15.888,7.832
15.892,7.868
15.896,7.852
15.9,7.832
15.904,7.868
15.908,7.872
15.912,7.864
15.916,7.836
15.92,7.86
15.924,7.86
15.928,7.86
15.932,7.836
15.936,7.844
15.94,7.832
15.944,7.84
15.948,7.82
15.952,7.828
15.956,7.844
15.96,7.856
15.964,7.816
15.968,7.808
15.972,7.824
15.976,7.852
15.98,7.804
15.984,7.816
15.988,7.824
15.992,7.848
15.996,7.816
16,7.808
16.004,7.82
16.008,7.828
16.012,7.8
16.016,7.808
16.02,7.84
16.024,7.84
16.028,7.828
16.032,7.828
16.036,7.816
16.04,7.86
16.044,7.86
16.048,7.864
16.052,7.904
16.056,7.936
16.06,7.9
16.064,7.916
16.068,7.996
16.072,8.032
16.076,8.064
16.08,8.04
16.084,8.024
16.088,7.992
16.092,7.976
16.096,7.924
16.1,7.904
16.104,7.868
16.108,7.868
16.112,7.836
16.116,7.796
16.12,7.796
16.124,7.792
16.128,7.796
16.132,7.792
16.136,7.792
16.14,7.796
16.144,7.792
16.148,7.772
16.152,7.804
16.156,7.812
16.16,7.8
16.164,7.792
16.168,7.772
16.172,7.776
16.176,7.78
16.18,7.692
16.184,7.608
16.188,7.652
16.192,7.884
16.196,8.26
16.2,8.916
16.204,9.648
16.208,10.28
16.212,10.828
16.216,10.928
16.22,10.924
16.224,10.256
16.228,8.948
16.232,7.876
16.236,7.504
16.24,7.368
16.244,7.388
16.248,7.532
16.252,7.644
16.256,7.744
16.26,7.84
16.264,7.828
16.268,7.816
16.272,7.824
16.276,7.82
16.28,7.836
16.284,7.808
16.288,7.844
16.292,7.84
16.296,7.828
16.3,7.824
16.304,7.848
16.308,7.872
16.312,7.852
16.316,7.836
16.32,7.868
16.324,7.88
16.328,7.848
16.332,7.84
16.336,7.86
16.34,7.892
16.344,7.892
16.348,7.884
16.352,7.896
16.356,7.936
16.36,7.924
16.364,7.912
16.368,7.932
16.372,7.956
16.376,7.976
16.38,7.948
16.384,7.988
16.388,8.032
16.392,8.032
16.396,8.024
16.4,8.012
16.404,8.072
16.408,8.08
16.412,8.116
16.416,8.152
16.42,8.2
16.424,8.24
16.428,8.252
16.432,8.284
16.436,8.324
16.44,8.364
16.444,8.408
16.448,8.424
16.452,8.476
16.456,8.516
16.46,8.56
16.464,8.572
16.468,8.588
16.472,8.616
16.476,8.628
16.48,8.608
16.484,8.56
16.488,8.524
16.492,8.468
16.496,8.372
16.5,8.316
16.504,8.268
16.508,8.22
16.512,8.152
16.516,8.068
16.52,8.036
16.524,8.024
16.528,7.972
16.532,7.908
16.536,7.884
16.54,7.896
16.544,7.876
16.548,7.864
16.552,7.868
16.556,7.86
16.56,7.832
16.564,7.824
16.568,7.808
16.572,7.824
16.576,7.844
16.58,7.82
16.584,7.836
16.588,7.848
16.592,7.868
16.596,7.828
16.6,7.824
16.604,7.848
16.608,7.868
16.612,7.864
16.616,7.848
16.62,7.868
16.624,7.876
16.628,7.848
16.632,7.86
16.636,7.86
16.64,7.86
16.644,7.88
16.648,7.864
16.652,7.856
16.656,7.872
16.66,7.872
16.664,7.836
16.668,7.852
16.672,7.864
16.676,7.884
16.68,7.872
16.684,7.856
16.688,7.872
16.692,7.864
16.696,7.86
16.7,7.848
16.704,7.848
16.708,7.884
16.712,7.856
16.716,7.844
16.72,7.876
16.724,7.84
16.728,7.852
16.732,7.82
16.736,7.828
16.74,7.856
16.744,7.848
16.748,7.832
16.752,7.86
16.756,7.872
16.76,7.836
16.764,7.824
16.768,7.836
16.772,7.856
16.776,7.872
16.78,7.872
16.784,7.868
16.788,7.92
16.792,7.936
16.796,7.92
16.8,7.928
16.804,7.96
16.808,8
16.812,8.044
16.816,8.08
16.82,8.116
16.824,8.124
16.828,8.044
16.832,7.952
16.836,7.992
16.84,7.96
16.844,7.944
16.848,7.92
16.852,7.924
16.856,7.916
16.86,7.876
16.864,7.836
16.868,7.816
16.872,7.84
16.876,7.824
16.88,7.836
16.884,7.84
16.888,7.86
16.892,7.844
16.896,7.828
16.9,7.824
16.904,7.848
16.908,7.84
16.912,7.812
16.916,7.82
16.92,7.8
16.924,7.728
16.928,7.672
16.932,7.82
16.936,8.164
16.94,8.7
16.944,9.336
16.948,9.948
16.952,10.552
16.956,10.984
16.96,11.052
16.964,10.812
16.968,9.788
16.972,8.468
16.976,7.74
16.98,7.476
16.984,7.46
16.988,7.596
16.992,7.744
16.996,7.784
17,7.88
17.004,7.888
17.008,7.888
17.012,7.868
17.016,7.84
17.02,7.844
17.024,7.868
17.028,7.84
17.032,7.828
17.036,7.864
17.04,7.872
17.044,7.884
17.048,7.876
17.052,7.888
17.056,7.912
17.06,7.916
17.064,7.884
17.068,7.892
17.072,7.912
17.076,7.944
17.08,7.928
17.084,7.936
17.088,7.948
17.092,7.94
17.096,7.94
17.1,7.944
17.104,7.98
17.108,7.98
17.112,8
17.116,7.972
17.12,7.996
17.124,8.04
17.128,8.04
17.132,8.056
17.136,8.084
17.14,8.084
17.144,8.124
17.148,8.148
17.152,8.148
17.156,8.208
17.16,8.232
17.164,8.252
17.168,8.28
17.172,8.352
17.176,8.408
17.18,8.424
17.184,8.436
17.188,8.52
17.192,8.56
17.196,8.568
17.2,8.6
17.204,8.672
17.208,8.696
17.212,8.72
17.216,8.704
17.22,8.724
17.224,8.696
17.228,8.636
17.232,8.58
17.236,8.528
17.24,8.468
17.244,8.392
17.248,8.312
17.252,8.26
17.256,8.22
17.26,8.152
17.264,8.088
17.268,8.052
17.272,8.028
17.276,7.996
17.28,7.96
17.284,7.94
17.288,7.936
17.292,7.936
17.296,7.88
17.3,7.884
17.304,7.896
17.308,7.896
17.312,7.9
17.316,7.872
17.32,7.916
17.324,7.92
17.328,7.904
17.332,7.86
17.336,7.892
17.34,7.908
17.344,7.912
17.348,7.916
17.352,7.916
17.356,7.928
17.36,7.924
17.364,7.896
17.368,7.908
17.372,7.932
17.376,7.924
17.38,7.916
17.384,7.924
17.388,7.948
17.392,7.928
17.396,7.928
17.4,7.88
17.404,7.924
17.408,7.936
17.412,7.936
17.416,7.92
17.42,7.932
17.424,7.944
17.428,7.908
17.432,7.888
17.436,7.928
17.44,7.932
17.444,7.936
17.448,7.92
17.452,7.928
17.456,7.94
17.46,7.924
17.464,7.912
17.468,7.904
17.472,7.928
17.476,7.916
17.48,7.912
17.484,7.912
17.488,7.916
17.492,7.932
17.496,7.92
17.5,7.916
17.504,7.932
17.508,7.944
17.512,7.932
17.516,7.924
17.52,7.928
17.524,7.94
17.528,7.908
17.532,7.916
17.536,7.916
17.54,7.916
17.544,7.92
17.548,7.916
17.552,7.928
17.556,7.936
17.56,7.936
17.564,7.924
17.568,7.924
17.572,7.968
17.576,7.968
17.58,7.972
17.584,7.988
17.588,8.004
17.592,8.016
17.596,8.004
17.6,8.016
17.604,8.12
17.608,8.168
17.612,8.168
17.616,8.164
17.62,8.128
17.624,8.072
17.628,8.036
17.632,8.024
17.636,8
17.64,7.976
17.644,7.988
17.648,7.964
17.652,7.956
17.656,7.94
17.66,7.908
17.664,7.896
17.668,7.9
17.672,7.92
17.676,7.924
17.68,7.896
17.684,7.904
17.688,7.936
17.692,7.912
17.696,7.884
17.7,7.892
17.704,7.912
17.708,7.904
17.712,7.86
17.716,7.764
17.72,7.8
17.724,8.016
17.728,8.34
17.732,8.888
17.736,9.524
17.74,10.164
17.744,10.76
17.748,11.072
17.752,11.136
17.756,10.78
17.76,9.6
17.764,8.312
17.768,7.66
17.772,7.492
17.776,7.544
17.78,7.664
17.784,7.796
17.788,7.932
17.792,8.032
17.796,8
17.8,7.968
17.804,7.972
17.808,8
17.812,7.964
17.816,7.964
17.82,7.98
17.824,7.988
17.828,7.984
17.832,7.98
17.836,7.988
17.84,8.02
17.844,8.012
17.848,8.016
17.852,8.024
17.856,8.036
17.86,8.044
17.864,8.024
17.868,8.04
17.872,8.052
17.876,8.06
17.88,8.084
17.884,8.068
17.888,8.076
17.892,8.096
17.896,8.068
17.9,8.088
17.904,8.108
17.908,8.132
17.912,8.128
17.916,8.128
17.92,8.152
17.924,8.2
17.928,8.184
17.932,8.2
17.936,8.248
17.94,8.284
17.944,8.296
17.948,8.304
17.952,8.344
17.956,8.4
17.96,8.44
17.964,8.448
17.968,8.48
17.972,8.536
17.976,8.58
17.98,8.612
17.984,8.68
17.988,8.748
17.992,8.764
17.996,8.792
18,8.82
18.004,8.844
18.008,8.872
18.012,8.832
18.016,8.824
18.02,8.784
18.024,8.752
18.028,8.652
18.032,8.584
18.036,8.516
18.04,8.448
18.044,8.408
18.048,8.308
18.052,8.288
18.056,8.232
18.06,8.192
18.064,8.124
18.068,8.096
18.072,8.1
18.076,8.088
18.08,8.044
18.084,8.028
18.088,8.036
18.092,8.048
18.096,8
18.1,8.004
18.104,8.008
18.108,8.02
18.112,8
18.116,7.988
18.12,8.04
18.124,8.02
18.128,8.016
18.132,8.012
18.136,8.02
18.14,8.032
18.144,8.024
18.148,8.02
18.152,8.04
18.156,8.052
18.16,8.04
18.164,8.024
18.168,8.008
18.172,8.048
18.176,8.056
18.18,8.032
18.184,8.02
18.188,8.056
18.192,8.052
18.196,8.024
18.2,7.996
18.204,8.028
18.208,8.04
18.212,8.032
18.216,8.02
18.22,8.032
18.224,8.04
18.228,8.016
18.232,8.004
18.236,8
18.24,8.028
18.244,8.02
18.248,8.02
18.252,7.996
18.256,8.032
18.26,8.02
18.264,8
18.268,7.992
18.272,8.016
18.276,8.028
18.28,7.996
18.284,8.004
18.288,8
18.292,8.016
18.296,7.964
18.3,7.98
18.304,8.004
18.308,8.004
18.312,8.008
18.316,8.004
18.32,7.988
18.324,8
18.328,7.988
18.332,7.972
18.336,7.988
18.34,8.02
18.344,8
18.348,7.984
18.352,8
18.356,8.02
18.36,8.02
18.364,7.992
18.368,7.98
18.372,7.988
18.376,8.02
18.38,7.976
18.384,8.004
18.388,8.028
18.392,8.048
18.396,8
18.4,8.028
18.404,8.052
18.408,8.052
18.412,8.076
18.416,8.068
18.42,8.1
18.424,8.132
18.428,8.18
18.432,8.196
18.436,8.22
18.44,8.228
18.444,8.204
18.448,8.1
18.452,8.124
18.456,8.12
18.46,8.072
18.464,8.036
18.468,8.04
18.472,8.04
18.476,8.012
18.48,8.004
18.484,7.972
18.488,7.996
18.492,8
18.496,7.96
18.5,7.98
18.504,7.976
18.508,7.972
18.512,7.98
18.516,7.964
18.52,7.98
18.524,7.992
18.528,7.96
18.532,7.96
18.536,7.928
18.54,7.844
18.544,7.844
18.548,8.088
18.552,8.44
18.556,9.056
18.56,9.68
18.564,10.284
18.568,10.896
18.572,11.156
18.576,11.208
18.58,10.756
18.584,9.508
18.588,8.276
18.592,7.696
18.596,7.52
18.6,7.576
18.604,7.732
18.608,7.868
18.612,7.976
18.616,8.052
18.62,8.052
18.624,8.056
18.628,8.028
18.632,8.02
18.636,8.024
18.64,8.036
18.644,8.044
18.648,8.024
18.652,8.032
18.656,8.036
18.66,8.044
18.664,8.048
18.668,8.028
18.672,8.068
18.676,8.052
18.68,8.06
18.684,8.056
18.688,8.096
18.692,8.084
18.696,8.096
18.7,8.076
18.704,8.088
18.708,8.124
18.712,8.092
18.716,8.124
18.72,8.136
18.724,8.156
18.728,8.148
18.732,8.144
18.736,8.16
18.74,8.184
18.744,8.192
18.748,8.204
18.752,8.212
18.756,8.248
18.76,8.252
18.764,8.26
18.768,8.272
18.772,8.344
18.776,8.392
18.78,8.38
18.784,8.432
18.788,8.492
18.792,8.536
18.796,8.548
18.8,8.58
18.804,8.632
18.808,8.692
18.812,8.688
18.816,8.74
18.82,8.8
18.824,8.836
18.828,8.828
18.832,8.824
18.836,8.84
18.84,8.836
18.844,8.78
18.848,8.712
18.852,8.664
18.856,8.604
18.86,8.532
18.864,8.448
18.868,8.376
18.872,8.34
18.876,8.272
18.88,8.192
18.884,8.144
18.888,8.12
18.892,8.084
18.896,8.052
18.9,8.032
18.904,8.032
18.908,8.016
18.912,7.98
18.916,7.984
18.92,8
18.924,7.992
18.928,7.964
18.932,7.952
18.936,7.948
18.94,7.964
18.944,7.964
18.948,7.956
18.952,7.952
18.956,7.976
18.96,7.976
18.964,7.948
18.968,7.952
18.972,7.964
18.976,7.96
18.98,7.968
18.984,7.96
18.988,7.976
18.992,7.972
18.996,7.928
19,7.904
19.004,7.94
19.008,7.964
19.012,7.944
19.016,7.944
19.02,7.936
19.024,7.952
19.028,7.956
19.032,7.92
19.036,7.92
19.04,7.932
19.044,7.924
19.048,7.892
19.052,7.924
19.056,7.956
19.06,7.952
19.064,7.928
19.068,7.884
19.072,7.94
19.076,7.936
19.08,7.904
19.084,7.884
19.088,7.932
19.092,7.916
19.096,7.876
19.1,7.868
19.104,7.908
19.108,7.9
19.112,7.904
19.116,7.904
19.12,7.916
19.124,7.908
19.128,7.888
19.132,7.872
19.136,7.876
19.14,7.892
19.144,7.884
19.148,7.888
19.152,7.888
19.156,7.88
19.16,7.884
19.164,7.86
19.168,7.852
19.172,7.876
19.176,7.876
19.18,7.872
19.184,7.888
19.188,7.892
19.192,7.888
19.196,7.852
19.2,7.856
19.204,7.856
19.208,7.876
19.212,7.852
19.216,7.852
19.22,7.872
19.224,7.892
19.228,7.864
19.232,7.876
19.236,7.884
19.24,7.88
19.244,7.912
19.248,7.896
19.252,7.948
19.256,7.948
19.26,7.984
19.264,8.016
19.268,8.044
19.272,8.112
19.276,8.128
19.28,8.064
19.284,8.008
19.288,8
19.292,7.98
19.296,7.936
19.3,7.896
19.304,7.896
19.308,7.9
19.312,7.852
19.316,7.832
19.32,7.844
19.324,7.86
19.328,7.836
19.332,7.82
19.336,7.828
19.34,7.836
19.344,7.836
19.348,7.828
19.352,7.816
19.356,7.848
19.36,7.86
19.364,7.808
19.368,7.8
19.372,7.792
19.376,7.66
19.38,7.64
19.384,7.876
19.388,8.236
19.392,8.88
19.396,9.532
19.4,10.156
19.404,10.776
19.408,10.996
19.412,11
19.416,10.492
19.42,9.288
19.424,8.124
19.428,7.576
19.432,7.392
19.436,7.44
19.44,7.56
19.444,7.68
19.448,7.772
19.452,7.856
19.456,7.892
19.46,7.868
19.464,7.836
19.468,7.836
19.472,7.856
19.476,7.876
19.48,7.864
19.484,7.832
19.488,7.872
19.492,7.892
19.496,7.864
19.5,7.884
19.504,7.88
19.508,7.876
19.512,7.884
19.516,7.876
19.52,7.904
19.524,7.92
19.528,7.904
19.532,7.888
19.536,7.928
19.54,7.924
19.544,7.936
19.548,7.932
19.552,7.944
19.556,7.98
19.56,7.988
19.564,7.952
19.568,7.996
19.572,8.024
19.576,8.032
19.58,8.02
19.584,8.036
19.588,8.064
19.592,8.092
19.596,8.076
19.6,8.1
19.604,8.136
19.608,8.168
19.612,8.192
19.616,8.216
19.62,8.24
19.624,8.316
19.628,8.332
19.632,8.356
19.636,8.428
19.64,8.476
19.644,8.508
19.648,8.536
19.652,8.576
19.656,8.632
19.66,8.652
19.664,8.652
19.668,8.684
19.672,8.684
19.676,8.66
19.68,8.624
19.684,8.564
19.688,8.54
19.692,8.464
19.696,8.376
19.7,8.32
19.704,8.268
19.708,8.22
19.712,8.132
19.716,8.096
19.72,8.064
19.724,8.02
19.728,7.956
19.732,7.924
19.736,7.908
19.74,7.908
19.744,7.888
19.748,7.852
19.752,7.856
19.756,7.88
19.76,7.852
19.764,7.848
19.768,7.852
19.772,7.844
19.776,7.86
19.78,7.852
19.784,7.84
19.788,7.856
19.792,7.868
19.796,7.84
19.8,7.82
19.804,7.848
19.808,7.868
19.812,7.848
19.816,7.876
19.82,7.864
19.824,7.868
19.828,7.848
19.832,7.852
19.836,7.856
19.84,7.864
19.844,7.852
19.848,7.856
19.852,7.852
19.856,7.864
19.86,7.868
19.864,7.824
19.868,7.852
19.872,7.868
19.876,7.872
19.88,7.848
19.884,7.856
19.888,7.856
19.892,7.868
19.896,7.86
19.9,7.852
19.904,7.868
19.908,7.872
19.912,7.844
19.916,7.832
19.92,7.824
19.924,7.86
19.928,7.824
19.932,7.84
19.936,7.84
19.94,7.844
19.944,7.852
19.948,7.832
19.952,7.856
19.956,7.856
19.96,7.872
19.964,7.82
19.968,7.808
19.972,7.82
19.976,7.852
19.98,7.828
19.984,7.848
19.988,7.856
19.992,7.872
19.996,7.864
20,7.88
20.004,7.88
20.008,7.9
20.012,7.908
20.016,7.904
20.02,7.956
20.024,8.008
20.028,8.04
20.032,8.072
20.036,8.084
20.04,8.028
20.044,7.988
20.048,7.96
20.052,7.944
20.056,7.94
20.06,7.904
20.064,7.852
20.068,7.84
20.072,7.848
20.076,7.832
20.08,7.808
20.084,7.8
20.088,7.828
20.092,7.848
20.096,7.824
20.1,7.792
20.104,7.824
20.108,7.824
20.112,7.796
20.116,7.808
20.12,7.804
20.124,7.836
20.128,7.82
20.132,7.752
20.136,7.66
20.14,7.648
20.144,7.776
20.148,8.116
20.152,8.696
20.156,9.444
20.16,10.052
20.164,10.592
20.168,10.956
20.172,11.016
20.176,10.688
20.18,9.572
20.184,8.324
20.188,7.716
20.192,7.548
20.196,7.496
20.2,7.58
20.204,7.672
20.208,7.796
20.212,7.86
20.216,7.884
20.22,7.884
20.224,7.908
20.228,7.872
20.232,7.852
20.236,7.864
20.24,7.88
20.244,7.872
20.248,7.876
20.252,7.88
20.256,7.888
20.26,7.9
20.264,7.872
20.268,7.876
20.272,7.912
20.276,7.908
20.28,7.896
20.284,7.928
20.288,7.952
20.292,7.956
20.296,7.928
20.3,7.928
20.304,7.956
20.308,7.984
20.312,7.952
20.316,7.96
20.32,7.988
20.324,8.016
20.328,8
20.332,8.024
20.336,8.028
20.34,8.052
20.344,8.056
20.348,8.056
20.352,8.08
20.356,8.156
20.36,8.16
20.364,8.144
20.368,8.168
20.372,8.228
20.376,8.236
20.38,8.296
20.384,8.316
20.388,8.372
20.392,8.432
20.396,8.452
20.4,8.484
20.404,8.54
20.408,8.58
20.412,8.612
20.416,8.648
20.42,8.676
20.424,8.724
20.428,8.692
20.432,8.688
20.436,8.672
20.44,8.628
20.444,8.58
20.448,8.504
20.452,8.46
20.456,8.408
20.46,8.344
20.464,8.244
20.468,8.18
20.472,8.14
20.476,8.092
20.48,8.028
20.484,7.976
20.488,7.996
20.492,7.964
20.496,7.924
20.5,7.92
20.504,7.892
20.508,7.908
20.512,7.888
20.516,7.88
20.52,7.9
20.524,7.912
20.528,7.892
20.532,7.856
20.536,7.88
20.54,7.892
20.544,7.888
20.548,7.868
20.552,7.892
20.556,7.896
20.56,7.9
20.564,7.88
20.568,7.872
20.572,7.892
20.576,7.896
20.58,7.892
20.584,7.896
20.588,7.916
20.592,7.908
20.596,7.9
20.6,7.888
20.604,7.9
20.608,7.908
20.612,7.896
20.616,7.896
20.62,7.916
20.624,7.916
20.628,7.912
20.632,7.888
20.636,7.896
20.64,7.888
20.644,7.896
20.648,7.868
20.652,7.888
20.656,7.9
20.66,7.888
20.664,7.86
20.668,7.872
20.672,7.892
20.676,7.864
20.68,7.872
20.684,7.884
20.688,7.876
20.692,7.88
20.696,7.872
20.7,7.84
20.704,7.872
20.708,7.884
20.712,7.856
20.716,7.856
20.72,7.876
20.724,7.888
20.728,7.86
20.732,7.856
20.736,7.864
20.74,7.872
20.744,7.864
20.748,7.852
20.752,7.852
20.756,7.88
20.76,7.892
20.764,7.88
20.768,7.888
20.772,7.912
20.776,7.92
20.78,7.94
20.784,7.936
20.788,7.968
20.792,8.004
20.796,8.02
20.8,8.048
20.804,8.076
20.808,8.096
20.812,8.064
20.816,8.012
20.82,7.964
20.824,7.968
20.828,7.928
20.832,7.896
20.836,7.916
20.84,7.924
20.844,7.864
20.848,7.86
20.852,7.84
20.856,7.876
20.86,7.832
20.864,7.852
20.868,7.852
20.872,7.852
20.876,7.856
20.88,7.844
20.884,7.844
20.888,7.864
20.892,7.868
20.896,7.836
20.9,7.824
20.904,7.808
20.908,7.72
20.912,7.696
20.916,7.912
20.92,8.3
20.924,8.916
20.928,9.52
20.932,10.14
20.936,10.736
20.94,11.02
20.944,11.072
20.948,10.628
20.952,9.44
20.956,8.264
20.96,7.716
20.964,7.48
20.968,7.54
20.972,7.64
20.976,7.772
20.98,7.832
20.984,7.912
20.988,7.932
20.992,7.92
20.996,7.876
21,7.868
21.004,7.892
21.008,7.896
21.012,7.888
21.016,7.904
21.02,7.912
21.024,7.92
21.028,7.9
21.032,7.916
21.036,7.924
21.04,7.92
21.044,7.928
21.048,7.912
21.052,7.932
21.056,7.968
21.06,7.98
21.064,7.96
21.068,7.976
21.072,7.98
21.076,7.992
21.08,7.976
21.084,8.012
21.088,8.032
21.092,8.032
21.096,8.02
21.1,8.028
21.104,8.064
21.108,8.088
21.112,8.088
21.116,8.084
21.12,8.124
21.124,8.14
21.128,8.172
21.132,8.168
21.136,8.208
21.14,8.252
21.144,8.28
21.148,8.308
21.152,8.348
21.156,8.404
21.16,8.42
21.164,8.464
21.168,8.48
21.172,8.552
21.176,8.608
21.18,8.628
21.184,8.66
21.188,8.736
21.192,8.744
21.196,8.764
21.2,8.764
21.204,8.768
21.208,8.756
21.212,8.684
21.216,8.62
21.22,8.584
21.224,8.536
21.228,8.452
21.232,8.384
21.236,8.308
21.24,8.26
21.244,8.192
21.248,8.12
21.252,8.096
21.256,8.064
21.26,8.028
21.264,7.984
21.268,7.964
21.272,7.968
21.276,7.94
21.28,7.924
21.284,7.924
21.288,7.94
21.292,7.944
21.296,7.916
21.3,7.912
21.304,7.912
21.308,7.928
21.312,7.924
21.316,7.916
21.32,7.936
21.324,7.944
21.328,7.92
21.332,7.92
21.336,7.932
21.34,7.944
21.344,7.916
21.348,7.904
21.352,7.948
21.356,7.952
21.36,7.952
21.364,7.912
21.368,7.916
21.372,7.944
21.376,7.936
21.38,7.936
21.384,7.932
21.388,7.948
21.392,7.956
21.396,7.936
21.4,7.916
21.404,7.924
21.408,7.936
21.412,7.924
21.416,7.904
21.42,7.932
21.424,7.94
21.428,7.932
21.432,7.908
21.436,7.932
21.44,7.944
21.444,7.92
21.448,7.916
21.452,7.928
21.456,7.94
21.46,7.936
21.464,7.896
21.468,7.9
21.472,7.896
21.476,7.924
21.48,7.896
21.484,7.904
21.488,7.94
21.492,7.92
21.496,7.904
21.5,7.896
21.504,7.888
21.508,7.94
21.512,7.876
21.516,7.876
21.52,7.916
21.524,7.936
21.528,7.912
21.532,7.912
21.536,7.888
21.54,7.924
21.544,7.916
21.548,7.896
21.552,7.892
21.556,7.92
21.56,7.896
21.564,7.888
21.568,7.86
21.572,7.9
21.576,7.912
21.58,7.916
21.584,7.9
21.588,7.94
21.592,7.968
21.596,7.956
21.6,7.964
21.604,7.984
21.608,8.008
21.612,7.984
21.616,8.008
21.62,8.088
21.624,8.132
21.628,8.16
21.632,8.128
21.636,8.108
21.64,8.052
21.644,8.012
21.648,8
21.652,8.008
21.656,7.96
21.66,7.968
21.664,7.916
21.668,7.924
21.672,7.904
21.676,7.9
21.68,7.872
21.684,7.876
21.688,7.896
21.692,7.88
21.696,7.872
21.7,7.86
21.704,7.908
21.708,7.888
21.712,7.86
21.716,7.864
21.72,7.868
21.724,7.872
21.728,7.816
21.732,7.716
21.736,7.756
21.74,8.04
21.744,8.396
21.748,8.968
21.752,9.604
21.756,10.26
21.76,10.856
21.764,11.052
21.768,11.064
21.772,10.584
21.776,9.324
21.78,8.144
21.784,7.6
21.788,7.476
21.792,7.544
21.796,7.652
21.8,7.756
21.804,7.892
21.808,7.98
21.812,7.944
21.816,7.928
21.82,7.948
21.824,7.948
21.828,7.928
21.832,7.924
21.836,7.94
21.84,7.928
21.844,7.924
21.848,7.924
21.852,7.932
21.856,7.976
21.86,7.98
21.864,7.932
21.868,7.948
21.872,7.984
21.876,7.984
21.88,7.984
21.884,7.992
21.888,8
21.892,8.032
21.896,7.992
21.9,8.008
21.904,8.02
21.908,8.024
21.912,8.04
21.916,8.028
21.92,8.048
21.924,8.076
21.928,8.096
21.932,8.072
21.936,8.092
21.94,8.128
21.944,8.124
21.948,8.148
21.952,8.188
21.956,8.22
21.96,8.244
21.964,8.256
21.968,8.276
21.972,8.324
21.976,8.38
21.98,8.388
21.984,8.424
21.988,8.504
21.992,8.532
21.996,8.58
22,8.6
22.004,8.664
22.008,8.712
22.012,8.736
22.016,8.752
22.02,8.816
22.024,8.824
22.028,8.82
22.032,8.78
22.036,8.748
22.04,8.716
22.044,8.612
22.048,8.532
22.052,8.484
22.056,8.44
22.06,8.38
22.064,8.264
22.068,8.192
22.072,8.192
22.076,8.132
22.08,8.064
22.084,8.052
22.088,8.028
22.092,8.016
22.096,7.976
22.1,7.952
22.104,7.952
22.108,7.964
22.112,7.94
22.116,7.948
22.12,7.924
22.124,7.964
22.128,7.92
22.132,7.904
22.136,7.92
22.14,7.948
22.144,7.932
22.148,7.916
22.152,7.932
22.156,7.96
22.16,7.952
22.164,7.936
22.168,7.92
22.172,7.96
22.176,7.968
22.18,7.936
22.184,7.932
22.188,7.952
22.192,7.976
22.196,7.948
22.2,7.94
22.204,7.94
22.208,7.96
22.212,7.908
22.216,7.916
22.22,7.944
22.224,7.944
22.228,7.932
22.232,7.9
22.236,7.912
22.24,7.916
22.244,7.944
22.248,7.912
22.252,7.92
22.256,7.924
22.26,7.928
22.264,7.92
22.268,7.904
22.272,7.92
22.276,7.92
22.28,7.912
22.284,7.9
22.288,7.928
22.292,7.932
22.296,7.916
22.3,7.912
22.304,7.908
22.308,7.92
22.312,7.884
22.316,7.884
22.32,7.912
22.324,7.928
22.328,7.908
22.332,7.892
22.336,7.892
22.34,7.9
22.344,7.888
22.348,7.868
22.352,7.888
22.356,7.912
22.36,7.916
22.364,7.88
22.368,7.876
22.372,7.896
22.376,7.88
22.38,7.868
22.384,7.876
22.388,7.9
22.392,7.932
22.396,7.908
22.4,7.896
22.404,7.936
22.408,7.972
22.412,7.952
22.416,7.948
22.42,8.016
22.424,8.08
22.428,8.104
22.432,8.12
22.436,8.136
22.44,8.116
22.444,8.044
22.448,8.004
22.452,8.02
22.456,7.984
22.46,7.952
22.464,7.928
22.468,7.908
22.472,7.924
22.476,7.908
22.48,7.848
22.484,7.864
22.488,7.888
22.492,7.9
22.496,7.86
22.5,7.848
22.504,7.848
22.508,7.88
22.512,7.856
22.516,7.872
22.52,7.88
22.524,7.904
22.528,7.868
22.532,7.816
22.536,7.736
22.54,7.728
22.544,7.912
22.548,8.236
22.552,8.844
22.556,9.512
22.56,10.152
22.564,10.736
22.568,11.04
22.572,11.136
22.576,10.752
22.58,9.588
22.584,8.308
22.588,7.68
22.592,7.464
22.596,7.452
22.6,7.6
22.604,7.72
22.608,7.84
22.612,7.908
22.616,7.944
22.62,7.936
22.624,7.924
22.628,7.932
22.632,7.904
22.636,7.924
22.64,7.952
22.644,7.948
22.648,7.916
22.652,7.916
22.656,7.964
22.66,7.96
22.664,7.928
22.668,7.928
22.672,7.964
22.676,7.968
22.68,7.972
22.684,7.976
22.688,7.996
22.692,8.012
22.696,8.008
22.7,8
22.704,8.02
22.708,8.016
22.712,8.028
22.716,8.024
22.72,8.036
22.724,8.072
22.728,8.072
22.732,8.076
22.736,8.092
22.74,8.092
22.744,8.112
22.748,8.096
22.752,8.152
22.756,8.204
22.76,8.212
22.764,8.216
22.768,8.232
22.772,8.288
22.776,8.336
22.78,8.336
22.784,8.392
22.788,8.464
22.792,8.484
22.796,8.492
22.8,8.528
22.804,8.588
22.808,8.624
22.812,8.672
22.816,8.696
22.82,8.748
22.824,8.796
22.828,8.78
22.832,8.76
22.836,8.78
22.84,8.748
22.844,8.656
22.848,8.612
22.852,8.56
22.856,8.508
22.86,8.432
22.864,8.352
22.868,8.284
22.872,8.224
22.876,8.184
22.88,8.112
22.884,8.076
22.888,8.072
22.892,8.064
22.896,7.996
22.9,7.968
22.904,7.96
22.908,7.96
22.912,7.916
22.916,7.924
22.92,7.944
22.924,7.948
22.928,7.944
22.932,7.932
22.936,7.924
22.94,7.952
22.944,7.92
22.948,7.896
22.952,7.924
22.956,7.928
22.96,7.952
22.964,7.932
22.968,7.912
22.972,7.948
22.976,7.956
22.98,7.96
22.984,7.936
22.988,7.964
22.992,7.96
22.996,7.952
23,7.928
23.004,7.944
23.008,7.948
23.012,7.94
23.016,7.936
23.02,7.94
23.024,7.972
23.028,7.96
23.032,7.952
23.036,7.944
23.04,7.944
23.044,7.952
23.048,7.94
23.052,7.932
23.056,7.96
23.06,7.964
23.064,7.944
23.068,7.924
23.072,7.976
23.076,7.96
23.08,7.916
23.084,7.944
23.088,7.944
23.092,7.96
23.096,7.94
23.1,7.936
23.104,7.944
23.108,7.94
23.112,7.94
23.116,7.936
23.12,7.956
23.124,7.988
23.128,7.96
23.132,7.944
23.136,7.94
23.14,8
23.144,7.972
23.148,7.956
23.152,7.968
23.156,8.004
23.16,8.02
23.164,8.036
23.168,8.032
23.172,8.044
23.176,8.072
23.18,8.088
23.184,8.144
23.188,8.204
23.192,8.24
23.196,8.22
23.2,8.16
23.204,8.12
23.208,8.108
23.212,8.072
23.216,8.044
23.22,8.032
23.224,8.064
23.228,8.028
23.232,7.98
23.236,7.98
23.24,7.964
23.244,7.968
23.248,7.968
23.252,7.964
23.256,7.996
23.26,8.004
23.264,7.984
23.268,7.984
23.272,7.988
23.276,7.972
23.28,7.964
23.284,7.948
23.288,7.968
23.292,7.932
23.296,7.792
23.3,7.828
23.304,8.104
23.308,8.512
23.312,9.2
23.316,9.828
23.32,10.5
23.324,11.072
23.328,11.212
23.332,11.192
23.336,10.492
23.34,9.184
23.344,8.108
23.348,7.68
23.352,7.564
23.356,7.632
23.36,7.772
23.364,7.88
23.368,7.96
23.372,8.072
23.376,8.06
23.38,8.028
23.384,8.012
23.388,8.032
23.392,8.036
23.396,8.04
23.4,8.032
23.404,8.036
23.408,8.056
23.412,8.04
23.416,8.02
23.42,8.068
23.424,8.096
23.428,8.056
23.432,8.064
23.436,8.076
23.44,8.068
23.444,8.072
23.448,8.096
23.452,8.104
23.456,8.116
23.46,8.124
23.464,8.112
23.468,8.12
23.472,8.144
23.476,8.148
23.48,8.132
23.484,8.12
23.488,8.184
23.492,8.22
23.496,8.204
23.5,8.212
23.504,8.24
23.508,8.252
23.512,8.24
23.516,8.272
23.52,8.324
23.524,8.336
23.528,8.368
23.532,8.388
23.536,8.44
23.54,8.472
23.544,8.52
23.548,8.536
23.552,8.608
23.556,8.664
23.56,8.692
23.564,8.72
23.568,8.756
23.572,8.812
23.576,8.848
23.58,8.848
23.584,8.884
23.588,8.904
23.592,8.892
23.596,8.828
23.6,8.756
23.604,8.736
23.608,8.676
23.612,8.596
23.616,8.52
23.62,8.464
23.624,8.42
23.628,8.336
23.632,8.252
23.636,8.224
23.64,8.192
23.644,8.132
23.648,8.112
23.652,8.084
23.656,8.104
23.66,8.076
23.664,8.028
23.668,8.008
23.672,8.028
23.676,8.016
23.68,8.012
23.684,7.988
23.688,8.04
23.692,8.052
23.696,8.032
23.7,8.004
23.704,8.008
23.708,8.024
23.712,8.008
23.716,8.008
23.72,8.032
23.724,8.064
23.728,8.036
23.732,8.016
23.736,8.012
23.74,8.044
23.744,8.036
23.748,8.016
23.752,8.024
23.756,8.04
23.76,8.024
23.764,8.028
23.768,7.996
23.772,8.04
23.776,8.008
23.78,8.02
23.784,8.008
23.788,8.024
23.792,8.04
23.796,8.016
23.8,8.016
23.804,8.016
23.808,8.02
23.812,8.008
23.816,8.008
23.82,8.008
23.824,8.02
23.828,8.016
23.832,8
23.836,8
23.84,8.02
23.844,7.992
23.848,7.98
23.852,7.996
23.856,7.996
23.86,7.996
23.864,7.988
23.868,7.98
23.872,7.98
23.876,8
23.88,7.984
23.884,7.988
23.888,8
23.892,8.02
23.896,8.012
23.9,7.98
23.904,8.008
23.908,8.016
23.912,8.016
23.916,8.036
23.92,8.072
23.924,8.08
23.928,8.076
23.932,8.076
23.936,8.14
23.94,8.184
23.944,8.216
23.948,8.184
23.952,8.164
23.956,8.124
23.96,8.1
23.964,8.064
23.968,8.024
23.972,8.028
23.976,8.032
23.98,7.996
23.984,7.96
23.988,7.968
23.992,7.948
23.996,7.94
24,7.936
24.004,7.932
24.008,7.948
24.012,7.948
24.016,7.916
24.02,7.936
24.024,7.952
24.028,7.964
24.032,7.932
24.036,7.944
24.04,7.94
24.044,7.9
24.048,7.772
24.052,7.78
24.056,7.98
24.06,8.332
24.064,8.868
24.068,9.544
24.072,10.16
24.076,10.812
24.08,11.136
24.084,11.176
24.088,10.88
24.092,9.708
24.096,8.376
24.1,7.704
24.104,7.488
24.108,7.516
24.112,7.628
24.116,7.752
24.12,7.908
24.124,8.02
24.128,7.996
24.132,7.98
24.136,7.98
24.14,7.984
24.144,7.952
24.148,7.956
24.152,7.972
24.156,7.992
24.16,7.98
24.164,7.988
24.168,7.988
24.172,7.996
24.176,8.008
24.18,7.996
24.184,7.992
24.188,8.032
24.192,8.048
24.196,8.028
24.2,8.028
24.204,8.032
24.208,8.06
24.212,8.044
24.216,8.052
24.22,8.068
24.224,8.08
24.228,8.08
24.232,8.072
24.236,8.084
24.24,8.116
24.244,8.12
24.248,8.124
24.252,8.136
24.256,8.18
24.26,8.2
24.264,8.172
24.268,8.208
24.272,8.236
24.276,8.276
24.28,8.268
24.284,8.312
24.288,8.38
24.292,8.424
24.296,8.432
24.3,8.472
24.304,8.508
24.308,8.58
24.312,8.608
24.316,8.628
24.32,8.684
24.324,8.76
24.328,8.76
24.332,8.792
24.336,8.8
24.34,8.844
24.344,8.828
24.348,8.776
24.352,8.772
24.356,8.712
24.36,8.652
24.364,8.568
24.368,8.488
24.372,8.424
24.376,8.376
24.38,8.292
24.384,8.22
24.388,8.18
24.392,8.156
24.396,8.084
24.4,8.048
24.404,8.028
24.408,8.032
24.412,7.988
24.416,7.948
24.42,7.968
24.424,7.992
24.428,7.972
24.432,7.948
24.436,7.956
24.44,7.952
24.444,7.94
24.448,7.928
24.452,7.932
24.456,7.976
24.46,7.972
24.464,7.956
24.468,7.956
24.472,7.956
24.476,7.948
24.48,7.948
24.484,7.944
24.488,7.976
24.492,7.984
24.496,7.968
24.5,7.956
24.504,7.972
24.508,7.964
24.512,7.944
24.516,7.952
24.52,7.964
24.524,7.976
24.528,7.972
24.532,7.94
24.536,7.948
24.54,7.972
24.544,7.952
24.548,7.92
24.552,7.956
24.556,7.972
24.56,7.96
24.564,7.928
24.568,7.928
24.572,7.952
24.576,7.944
24.58,7.928
24.584,7.928
24.588,7.932
24.592,7.932
24.596,7.92
24.6,7.896
24.604,7.928
24.608,7.936
24.612,7.924
24.616,7.888
24.62,7.92
24.624,7.928
24.628,7.92
24.632,7.888
24.636,7.92
24.64,7.94
24.644,7.92
24.648,7.92
24.652,7.912
24.656,7.976
24.66,7.972
24.664,7.968
24.668,7.996
24.672,7.984
24.676,8.024
24.68,8.064
24.684,8.096
24.688,8.164
24.692,8.188
24.696,8.16
24.7,8.076
24.704,8.048
24.708,8.064
24.712,8.02
24.716,7.964
24.72,7.976
24.724,7.976
24.728,7.96
24.732,7.908
24.736,7.872
24.74,7.904
24.744,7.896
24.748,7.876
24.752,7.884
24.756,7.896
24.76,7.908
24.764,7.872
24.768,7.876
24.772,7.896
24.776,7.888
24.78,7.872
24.784,7.872
24.788,7.872
24.792,7.84
24.796,7.728
24.8,7.728
24.804,7.976
24.808,8.336
24.812,8.956
24.816,9.608
24.82,10.268
24.824,10.872
24.828,11.116
24.832,11.128
24.836,10.628
24.84,9.348
24.844,8.128
24.848,7.568
24.852,7.384
24.856,7.472
24.86,7.604
24.864,7.708
24.868,7.812
24.872,7.924
24.876,7.924
24.88,7.896
24.884,7.892
24.888,7.908
24.892,7.912
24.896,7.908
24.9,7.908
24.904,7.912
24.908,7.932
24.912,7.896
24.916,7.92
24.92,7.92
24.924,7.936
24.928,7.936
24.932,7.932
24.936,7.936
24.94,7.96
24.944,7.976
24.948,7.944
24.952,7.968
24.956,7.984
24.96,8.004
24.964,7.964
24.968,8.004
24.972,8.016
24.976,8.032
24.98,8.012
24.984,8.028
24.988,8.072
24.992,8.076
24.996,8.072
25,8.08
25.004,8.1
25.008,8.104
25.012,8.14
25.016,8.14
25.02,8.192
25.024,8.212
25.028,8.252
25.032,8.256
25.036,8.296
25.04,8.36
25.044,8.396
25.048,8.412
25.052,8.456
25.056,8.54
25.06,8.572
25.064,8.584
25.068,8.64
25.072,8.672
25.076,8.712
25.08,8.712
25.084,8.748
25.088,8.768
25.092,8.768
25.096,8.728
25.1,8.66
25.104,8.624
25.108,8.572
25.112,8.5
25.116,8.424
25.12,8.364
25.124,8.32
25.128,8.236
25.132,8.168
25.136,8.108
25.14,8.072
25.144,8.02
25.148,8.016
25.152,7.972
25.156,7.98
25.16,7.948
25.164,7.916
25.168,7.912
25.172,7.924
25.176,7.92
25.18,7.888
25.184,7.892
25.188,7.908
25.192,7.928
25.196,7.892
25.2,7.88
25.204,7.896
25.208,7.9
25.212,7.884
25.216,7.892
25.22,7.92
25.224,7.92
25.228,7.916
25.232,7.896
25.236,7.888
25.24,7.916
25.244,7.912
25.248,7.876
25.252,7.9
25.256,7.92
25.26,7.932
25.264,7.908
25.268,7.892
25.272,7.912
25.276,7.928
25.28,7.896
25.284,7.896
25.288,7.912
25.292,7.932
25.296,7.912
25.3,7.912
25.304,7.916
25.308,7.904
25.312,7.9
25.316,7.896
25.32,7.884
25.324,7.932
25.328,7.896
25.332,7.884
25.336,7.888
25.34,7.9
25.344,7.888
25.348,7.864
25.352,7.86
25.356,7.9
25.36,7.912
25.364,7.888
25.368,7.88
25.372,7.9
25.376,7.92
25.38,7.9
25.384,7.924
25.388,7.98
25.392,7.98
25.396,7.968
25.4,7.992
25.404,8.044
25.408,8.096
25.412,8.104
25.416,8.092
25.42,8.064
25.424,8.036
25.428,8.012
25.432,7.972
25.436,7.944
25.44,7.924
25.444,7.912
25.448,7.888
25.452,7.884
25.456,7.852
25.46,7.86
25.464,7.832
25.468,7.844
25.472,7.856
25.476,7.86
25.48,7.836
25.484,7.844
25.488,7.86
25.492,7.832
25.496,7.84
25.5,7.844
25.504,7.844
25.508,7.864
25.512,7.804
25.516,7.72
25.52,7.672
25.524,7.692
25.528,7.968
25.532,8.388
25.536,9.096
25.54,9.784
25.544,10.428
25.548,10.952
25.552,11.064
25.556,11.02
25.56,10.276
25.564,8.916
25.568,7.872
25.572,7.524
25.576,7.384
25.58,7.448
25.584,7.56
25.588,7.716
25.592,7.82
25.596,7.9
25.6,7.864
25.604,7.872
25.608,7.872
25.612,7.856
25.616,7.844
25.62,7.896
25.624,7.9
25.628,7.872
25.632,7.876
25.636,7.868
25.64,7.912
25.644,7.9
25.648,7.892
25.652,7.904
25.656,7.924
25.66,7.928
25.664,7.896
25.668,7.9
25.672,7.948
25.676,7.936
25.68,7.944
25.684,7.94
25.688,7.956
25.692,8
25.696,7.972
25.7,7.968
25.704,8.012
25.708,8.032
25.712,8.004
25.716,8.016
25.72,8.056
25.724,8.092
25.728,8.08
25.732,8.08
25.736,8.112
25.74,8.132
25.744,8.156
25.748,8.188
25.752,8.224
25.756,8.272
25.76,8.304
25.764,8.328
25.768,8.356
25.772,8.408
25.776,8.464
25.78,8.48
25.784,8.528
25.788,8.58
25.792,8.616
25.796,8.644
25.8,8.672
25.804,8.708
25.808,8.728
25.812,8.704
25.816,8.676
25.82,8.672
25.824,8.636
25.828,8.568
25.832,8.476
25.836,8.408
25.84,8.36
25.844,8.304
25.848,8.24
25.852,8.188
25.856,8.14
25.86,8.096
25.864,8.036
25.868,7.992
25.872,7.992
25.876,7.96
25.88,7.932
25.884,7.92
25.888,7.928
25.892,7.936
25.896,7.904
25.9,7.9
25.904,7.904
25.908,7.916
25.912,7.892
25.916,7.884
25.92,7.9
25.924,7.936
25.928,7.916
25.932,7.888
25.936,7.908
25.94,7.912
25.944,7.908
25.948,7.888
25.952,7.932
25.956,7.928
25.96,7.94
25.964,7.908
25.968,7.932
25.972,7.94
25.976,7.956
25.98,7.924
25.984,7.932
25.988,7.94
25.992,7.944
25.996,7.932
26,7.936
26.004,7.932
26.008,7.948
26.012,7.924
26.016,7.912
26.02,7.932
26.024,7.932
26.028,7.952
26.032,7.92
26.036,7.916
26.04,7.932
26.044,7.928
26.048,7.912
26.052,7.908
26.056,7.928
26.06,7.944
26.064,7.904
26.068,7.9
26.072,7.904
26.076,7.924
26.08,7.908
26.084,7.916
26.088,7.916
26.092,7.944
26.096,7.92
26.1,7.908
26.104,7.924
26.108,7.96
26.112,7.96
26.116,7.96
26.12,7.992
26.124,8.036
26.128,8.004
26.132,8.008
26.136,8.06
26.14,8.132
26.144,8.156
26.148,8.136
26.152,8.132
26.156,8.1
26.16,8.048
26.164,8.036
26.168,8
26.172,7.984
26.176,7.992
26.18,7.948
26.184,7.936
26.188,7.928
26.192,7.912
26.196,7.916
26.2,7.88
26.204,7.892
26.208,7.904
26.212,7.888
26.216,7.888
26.22,7.892
26.224,7.924
26.228,7.872
26.232,7.888
26.236,7.904
26.24,7.872
26.244,7.88
26.248,7.824
26.252,7.724
26.256,7.796
26.26,8.028
26.264,8.404
26.268,9.016
26.272,9.648
26.276,10.312
26.28,10.888
26.284,11.096
26.288,11.184
26.292,10.632
26.296,9.32
26.3,8.108
26.304,7.632
26.308,7.456
26.312,7.512
26.316,7.628
26.32,7.792
26.324,7.92
26.328,8
26.332,7.964
26.336,7.948
26.34,7.94
26.344,7.948
26.348,7.92
26.352,7.94
26.356,7.972
26.36,7.976
26.364,7.932
26.368,7.94
26.372,7.972
26.376,7.964
26.38,7.956
26.384,7.952
26.388,7.988
26.392,8
26.396,7.992
26.4,7.972
26.404,8.008
26.408,8.02
26.412,8.012
26.416,8.032
26.42,8.02
26.424,8.044
26.428,8.072
26.432,8.06
26.436,8.052
26.44,8.088
26.444,8.084
26.448,8.072
26.452,8.12
26.456,8.16
26.46,8.168
26.464,8.148
26.468,8.168
26.472,8.184
26.476,8.236
26.48,8.248
26.484,8.264
26.488,8.316
26.492,8.356
26.496,8.38
26.5,8.42
26.504,8.444
26.508,8.508
26.512,8.548
26.516,8.572
26.52,8.648
26.524,8.708
26.528,8.736
26.532,8.744
26.536,8.76
26.54,8.788
26.544,8.8
26.548,8.748
26.552,8.74
26.556,8.72
26.56,8.652
26.564,8.556
26.568,8.48
26.572,8.448
26.576,8.352
26.58,8.284
26.584,8.228
26.588,8.2
26.592,8.164
26.596,8.096
26.6,8.064
26.604,8.032
26.608,8.028
26.612,7.988
26.616,7.956
26.62,7.964
26.624,7.984
26.628,7.96
26.632,7.944
26.636,7.952
26.64,7.98
26.644,7.948
26.648,7.92
26.652,7.928
26.656,7.968
26.66,7.964
26.664,7.952
26.668,7.948
26.672,7.964
26.676,7.952
26.68,7.948
26.684,7.952
26.688,7.98
26.692,7.996
26.696,7.964
26.7,7.948
26.704,7.968
26.708,7.956
26.712,7.944
26.716,7.936
26.72,7.948
26.724,7.96
26.728,7.952
26.732,7.932
26.736,7.932
26.74,7.972
26.744,7.96
26.748,7.944
26.752,7.936
26.756,7.964
26.76,7.972
26.764,7.948
26.768,7.936
26.772,7.952
26.776,7.972
26.78,7.924
26.784,7.912
26.788,7.96
26.792,7.96
26.796,7.96
26.8,7.936
26.804,7.936
26.808,7.924
26.812,7.904
26.816,7.92
26.82,7.94
26.824,7.936
26.828,7.956
26.832,7.912
26.836,7.924
26.84,7.94
26.844,7.92
26.848,7.908
26.852,7.924
26.856,7.944
26.86,7.952
26.864,7.944
26.868,7.932
26.872,7.976
26.876,7.992
26.88,8
26.884,8.004
26.888,8.012
26.892,8.04
26.896,8.056
26.9,8.12
26.904,8.152
26.908,8.176
26.912,8.168
26.916,8.116
26.92,8.052
26.924,8.056
26.928,8.048
26.932,7.992
26.936,7.952
26.94,7.968
26.944,7.952
26.948,7.936
26.952,7.928
26.956,7.916
26.96,7.936
26.964,7.884
26.968,7.924
26.972,7.912
26.976,7.908
26.98,7.912
26.984,7.88
26.988,7.908
26.992,7.908
26.996,7.904
27,7.892
27.004,7.904
27.008,7.872
27.012,7.736
27.016,7.736
27.02,7.968
27.024,8.324
27.028,8.88
27.032,9.516
27.036,10.14
27.04,10.812
27.044,11.112
27.048,11.156
27.052,10.808
27.056,9.628
27.06,8.352
27.064,7.668
27.068,7.432
27.072,7.472
27.076,7.636
27.08,7.74
27.084,7.864
27.088,7.976
27.092,7.992
27.096,7.952
27.1,7.912
27.104,7.924
27.108,7.952
27.112,7.948
27.116,7.932
27.12,7.964
27.124,7.96
27.128,7.952
27.132,7.968
27.136,7.96
27.14,7.996
27.144,7.984
27.148,7.984
27.152,7.996
27.156,8.016
27.16,8.028
27.164,7.988
27.168,7.992
27.172,8.036
27.176,8.032
27.18,8.024
27.184,8.012
27.188,8.06
27.192,8.08
27.196,8.076
27.2,8.08
27.204,8.096
27.208,8.112
27.212,8.136
27.216,8.148
27.22,8.176
27.224,8.204
27.228,8.204
27.232,8.216
27.236,8.228
27.24,8.288
27.244,8.296
27.248,8.32
27.252,8.368
27.256,8.428
27.26,8.46
27.264,8.48
27.268,8.5
27.272,8.556
27.276,8.608
27.28,8.62
27.284,8.664
27.288,8.748
27.292,8.78
27.296,8.796
27.3,8.788
27.304,8.828
27.308,8.82
27.312,8.788
27.316,8.744
27.32,8.704
27.324,8.636
27.328,8.576
27.332,8.48
27.336,8.428
27.34,8.372
27.344,8.324
27.348,8.236
27.352,8.188
27.356,8.172
27.36,8.132
27.364,8.068
27.368,8.032
27.372,8.004
27.376,8.024
27.38,7.964
27.384,7.988
27.388,8
27.392,7.996
27.396,7.984
27.4,7.956
27.404,7.976
27.408,7.968
27.412,7.976
27.416,7.96
27.42,7.98
27.424,8.02
27.428,7.968
27.432,7.976
27.436,7.976
27.44,7.996
27.444,7.968
27.448,7.976
27.452,7.984
27.456,7.996
27.46,8.008
27.464,8.008
27.468,7.988
27.472,8.004
27.476,7.992
27.48,7.968
27.484,7.972
27.488,7.98
27.492,7.996
27.496,7.972
27.5,7.98
27.504,7.972
27.508,7.992
27.512,7.948
27.516,7.952
27.52,7.992
27.524,8.004
27.528,7.968
27.532,7.956
27.536,7.948
27.54,7.988
27.544,7.964
27.548,7.952
27.552,7.948
27.556,7.98
27.56,7.976
27.564,7.944
27.568,7.96
27.572,7.956
27.576,7.968
27.58,7.96
27.584,7.932
27.588,7.956
27.592,7.976
27.596,7.96
27.6,7.932
27.604,7.94
27.608,7.94
27.612,7.94
27.616,7.936
27.62,7.932
27.624,7.972
27.628,7.972
27.632,7.936
27.636,7.944
27.64,7.98
27.644,7.968
27.648,7.964
27.652,8.008
27.656,8.024
27.66,8.016
27.664,8.04
27.668,8.104
27.672,8.14
27.676,8.196
27.68,8.184
27.684,8.176
27.688,8.128
27.692,8.096
27.696,8.068
27.7,8.012
27.704,8
27.708,8.004
27.712,7.988
27.716,7.944
27.72,7.92
27.724,7.956
27.728,7.932
27.732,7.912
27.736,7.904
27.74,7.928
27.744,7.92
27.748,7.912
27.752,7.9
27.756,7.948
27.76,7.948
27.764,7.908
27.768,7.916
27.772,7.936
27.776,7.924
27.78,7.816
27.784,7.736
27.788,7.824
27.792,8.088
27.796,8.488
27.8,9.152
27.804,9.82
27.808,10.484
27.812,11.008
27.816,11.116
27.82,11.112
27.824,10.36
27.828,9.02
27.832,7.972
27.836,7.564
27.84,7.456
27.844,7.52
27.848,7.652
27.852,7.772
27.856,7.904
27.86,7.988
27.864,7.956
27.868,7.944
27.872,7.944
27.876,7.956
27.88,7.928
27.884,7.924
27.888,7.968
27.892,7.964
27.896,7.944
27.9,7.928
27.904,7.96
27.908,7.98
27.912,7.944
27.916,7.96
27.92,8
27.924,8.004
27.928,7.976
27.932,7.992
27.936,7.988
27.94,8.012
27.944,8.008
27.948,8.004
27.952,8.008
27.956,8.02
27.96,8.052
27.964,8.048
27.968,8.048
27.972,8.08
27.976,8.088
27.98,8.052
27.984,8.076
27.988,8.096
27.992,8.124
27.996,8.152
28,8.144
28.004,8.18
28.008,8.212
28.012,8.216
28.016,8.252
28.02,8.272
28.024,8.328
28.028,8.376
28.032,8.384
28.036,8.436
28.04,8.476
28.044,8.5
28.048,8.544
28.052,8.596
28.056,8.64
28.06,8.692
28.064,8.704
28.068,8.74
28.072,8.756
28.076,8.748
28.08,8.724
28.084,8.7
28.088,8.66
28.092,8.632
28.096,8.56
28.1,8.464
28.104,8.408
28.108,8.356
28.112,8.292
28.116,8.208
28.12,8.18
28.124,8.152
28.128,8.068
28.132,8.028
28.136,7.996
28.14,7.98
28.144,7.972
28.148,7.928
28.152,7.928
28.156,7.94
28.16,7.928
28.164,7.9
28.168,7.896
28.172,7.908
28.176,7.924
28.18,7.9
28.184,7.884
28.188,7.912
28.192,7.912
28.196,7.9
28.2,7.884
28.204,7.916
28.208,7.92
28.212,7.908
28.216,7.892
28.22,7.916
28.224,7.92
28.228,7.936
28.232,7.92
28.236,7.892
28.24,7.908
28.244,7.908
28.248,7.912
28.252,7.924
28.256,7.916
28.26,7.936
28.264,7.896
28.268,7.892
28.272,7.908
28.276,7.932
28.28,7.876
28.284,7.884
28.288,7.908
28.292,7.924
28.296,7.904
28.3,7.904
28.304,7.908
28.308,7.912
28.312,7.888
28.316,7.876
28.32,7.872
28.324,7.904
28.328,7.888
28.332,7.872
28.336,7.876
28.34,7.888
28.344,7.904
28.348,7.88
28.352,7.896
28.356,7.904
28.36,7.9
28.364,7.864
28.368,7.884
28.372,7.908
28.376,7.916
28.38,7.892
28.384,7.896
28.388,7.956
28.392,7.992
28.396,7.968
28.4,7.944
28.404,7.972
28.408,8.048
28.412,8.072
28.416,8.104
28.42,8.136
28.424,8.14
28.428,8.064
28.432,8.02
28.436,8.004
28.44,8.008
28.444,7.964
28.448,7.924
28.452,7.932
28.456,7.924
28.46,7.9
28.464,7.872
28.468,7.844
28.472,7.872
28.476,7.872
28.48,7.844
28.484,7.872
28.488,7.864
28.492,7.88
28.496,7.852
28.5,7.864
28.504,7.868
28.508,7.88
28.512,7.864
28.516,7.844
28.52,7.808
28.524,7.728
28.528,7.68
28.532,7.872
28.536,8.224
28.54,8.88
28.544,9.584
28.548,10.192
28.552,10.796
28.556,11.08
28.56,11.096
28.564,10.612
28.568,9.4
28.572,8.216
28.576,7.668
28.58,7.492
28.584,7.48
28.588,7.624
28.592,7.732
28.596,7.828
28.6,7.92
28.604,7.928
28.608,7.956
28.612,7.888
28.616,7.896
28.62,7.924
28.624,7.952
28.628,7.944
28.632,7.936
28.636,7.924
28.64,7.944
28.644,7.936
28.648,7.928
28.652,7.94
28.656,7.98
28.66,7.972
28.664,7.968
28.668,7.96
28.672,7.992
28.676,7.972
28.68,7.98
28.684,7.972
28.688,8.024
28.692,8.032
28.696,8.024
28.7,8.032
28.704,8.04
28.708,8.06
28.712,8.068
28.716,8.08
28.72,8.092
28.724,8.104
28.728,8.124
28.732,8.148
28.736,8.14
28.74,8.192
28.744,8.204
28.748,8.196
28.752,8.232
28.756,8.288
28.76,8.304
28.764,8.344
28.768,8.348
28.772,8.408
28.776,8.46
28.78,8.468
28.784,8.508
28.788,8.56
28.792,8.636
28.796,8.636
28.8,8.676
28.804,8.708
28.808,8.752
28.812,8.76
28.816,8.748
28.82,8.756
28.824,8.732
28.828,8.7
28.832,8.628
28.836,8.584
28.84,8.516
28.844,8.452
28.848,8.348
28.852,8.3
28.856,8.26
28.86,8.188
28.864,8.144
28.868,8.08
28.872,8.076
28.876,8.06
28.88,8.02
28.884,8.012
28.888,7.996
28.892,8.008
28.896,7.988
28.9,7.972
28.904,7.972
28.908,7.96
28.912,7.936
28.916,7.944
28.92,7.968
28.924,7.98
28.928,7.984
28.932,7.96
28.936,7.976
28.94,7.968
28.944,7.968
28.948,7.96
28.952,7.976
28.956,7.996
28.96,7.992
28.964,7.988
28.968,7.968
28.972,7.972
28.976,7.976
28.98,7.952
28.984,7.94
28.988,7.976
28.992,8.004
28.996,7.968
29,7.976
29.004,7.948
29.008,7.996
29.012,7.964
29.016,7.96
29.02,7.988
29.024,7.988
29.028,7.992
29.032,7.972
29.036,7.944
29.04,7.976
29.044,7.968
29.048,7.944
29.052,7.944
29.056,7.956
29.06,7.952
29.064,7.928
29.068,7.932
29.072,7.976
29.076,7.948
29.08,7.92
29.084,7.924
29.088,7.96
29.092,7.964
29.096,7.936
29.1,7.928
29.104,7.928
29.108,7.924
29.112,7.924
29.116,7.92
29.12,7.912
29.124,7.944
29.128,7.928
29.132,7.924
29.136,7.944
29.14,7.96
29.144,7.944
29.148,7.944
29.152,7.988
29.156,7.988
29.16,8.02
29.164,7.996
29.168,8.032
29.172,8.092
29.176,8.16
29.18,8.144
29.184,8.156
29.188,8.116
29.192,8.068
29.196,8.04
29.2,8.024
29.204,8
29.208,7.984
29.212,7.976
29.216,7.948
29.22,7.96
29.224,7.916
29.228,7.904
29.232,7.88
29.236,7.888
29.24,7.912
29.244,7.896
29.248,7.868
29.252,7.88
29.256,7.888
29.26,7.912
29.264,7.884
29.268,7.88
29.272,7.892
29.276,7.904
29.28,7.844
29.284,7.744
29.288,7.748
29.292,7.976
29.296,8.248
29.3,8.796
29.304,9.448
29.308,10.076
29.312,10.668
29.316,11.028
29.32,11.14
29.324,10.88
29.328,9.76
29.332,8.42
29.336,7.736
29.34,7.476
29.344,7.496
29.348,7.612
29.352,7.728
29.356,7.856
29.36,7.98
29.364,7.972
29.368,7.94
29.372,7.936
29.376,7.936
29.38,7.928
29.384,7.928
29.388,7.94
29.392,7.96
29.396,7.92
29.4,7.936
29.404,7.948
29.408,7.96
29.412,7.956
29.416,7.944
29.42,7.964
29.424,8.004
29.428,7.96
29.432,7.972
29.436,7.988
29.44,8.008
29.444,8.008
29.448,8
29.452,8.016
29.456,8.04
29.46,8.024
29.464,8.04
29.468,8.048
29.472,8.06
29.476,8.08
29.48,8.072
29.484,8.088
29.488,8.116
29.492,8.144
29.496,8.152
29.5,8.168
29.504,8.188
29.508,8.212
29.512,8.232
29.516,8.228
29.52,8.292
29.524,8.336
29.528,8.34
29.532,8.4
29.536,8.448
29.54,8.5
29.544,8.524
29.548,8.564
29.552,8.612
29.556,8.668
29.56,8.72
29.564,8.712
29.568,8.756
29.572,8.772
29.576,8.792
29.58,8.756
29.584,8.74
29.588,8.732
29.592,8.696
29.596,8.612
29.6,8.524
29.604,8.472
29.608,8.404
29.612,8.336
29.616,8.252
29.62,8.224
29.624,8.192
29.628,8.116
29.632,8.06
29.636,8.048
29.64,8.008
29.644,8
29.648,7.976
29.652,7.952
29.656,7.964
29.66,7.964
29.664,7.948
29.668,7.908
29.672,7.948
29.676,7.94
29.68,7.912
29.684,7.908
29.688,7.972
29.692,7.968
29.696,7.952
29.7,7.96
29.704,7.948
29.708,7.96
29.712,7.944
29.716,7.948
29.72,7.956
29.724,7.968
29.728,7.96
29.732,7.936
29.736,7.948
29.74,7.964
29.744,7.956
29.748,7.936
29.752,7.952
29.756,7.98
29.76,7.984
29.764,7.956
29.768,7.944
29.772,7.952
29.776,7.98
29.78,7.948
29.784,7.944
29.788,7.952
29.792,7.964
29.796,7.94
29.8,7.944
29.804,7.952
29.808,7.964
29.812,7.944
29.816,7.948
29.82,7.948
29.824,7.972
29.828,7.96
29.832,7.94
29.836,7.92
29.84,7.948
29.844,7.948
29.848,7.912
29.852,7.944
29.856,7.932
29.86,7.972
29.864,7.932
29.868,7.916
29.872,7.948
29.876,7.956
29.88,7.928
29.884,7.916
29.888,7.936
29.892,7.928
29.896,7.936
29.9,7.932
29.904,7.944
29.908,7.948
29.912,7.928
29.916,7.92
29.92,7.956
29.924,7.948
29.928,7.976
29.932,7.94
29.936,7.98
29.94,8.004
29.944,8.012
29.948,8
29.952,8.02
29.956,8.072
29.96,8.164
29.964,8.176
29.968,8.18
29.972,8.172
29.976,8.104
29.98,8.044
29.984,8.036
29.988,8.02
29.992,8.016
29.996,7.984
30,7.964
30.004,7.944
30.008,7.948
30.012,7.908
30.016,7.892
30.02,7.916
30.024,7.916
30.028,7.928
30.032,7.888
30.036,7.9
30.04,7.904
30.044,7.9
30.048,7.892
30.052,7.904
30.056,7.904
30.06,7.916
30.064,7.888
30.068,7.816
30.072,7.744
30.076,7.812
30.08,8.052
30.084,8.452
30.088,9.116
30.092,9.764
30.096,10.38
30.1,10.96
30.104,11.132
30.108,11.116
30.112,10.464
30.116,9.124
30.12,8.04
30.124,7.62
30.128,7.452
30.132,7.52
30.136,7.66
30.14,7.812
30.144,7.92
30.148,7.944
30.152,7.94
30.156,7.944
30.16,7.948
30.164,7.928
30.168,7.936
30.172,7.956
30.176,7.98
30.18,7.952
30.184,7.94
30.188,7.992
30.192,8
30.196,7.964
30.2,7.972
30.204,7.988
30.208,8.012
30.212,7.992
30.216,8
30.22,7.996
30.224,8.036
30.228,8.04
30.232,8.008
30.236,8.012
30.24,8.032
30.244,8.048
30.248,8.012
30.252,8.06
30.256,8.084
30.26,8.084
30.264,8.076
30.268,8.08
30.272,8.148
30.276,8.16
30.28,8.156
30.284,8.184
30.288,8.208
30.292,8.264
30.296,8.248
30.3,8.256
30.304,8.308
30.308,8.328
30.312,8.352
30.316,8.38
30.32,8.456
30.324,8.488
30.328,8.516
30.332,8.54
30.336,8.6
30.34,8.64
30.344,8.68
30.348,8.692
30.352,8.74
30.356,8.804
30.36,8.82
30.364,8.816
30.368,8.8
30.372,8.792
30.376,8.74
30.38,8.68
30.384,8.616
30.388,8.568
30.392,8.52
30.396,8.416
30.4,8.356
30.404,8.312
30.408,8.256
30.412,8.188
30.416,8.148
30.42,8.12
30.424,8.088
30.428,8.06
30.432,8.02
30.436,8.02
30.44,8.024
30.444,8.008
30.448,7.984
30.452,7.944
30.456,7.996
30.46,7.976
30.464,7.948
30.468,7.94
30.472,7.964
30.476,7.968
30.48,7.96
30.484,7.94
30.488,7.964
30.492,7.988
30.496,7.952
30.5,7.952
30.504,7.964
30.508,7.968
30.512,7.952
30.516,7.956
30.52,7.972
30.524,7.984
30.528,7.996
30.532,7.956
30.536,7.984
30.54,7.984
30.544,7.964
30.548,7.948
30.552,7.964
30.556,7.944
30.56,7.968
30.564,7.96
30.568,7.964
30.572,7.936
30.576,7.98
30.58,7.936
30.584,7.94
30.588,7.968
30.592,7.976
30.596,7.92
30.6,7.932
30.604,7.928
30.608,7.968
30.612,7.916
30.616,7.924
30.62,7.92
30.624,7.952
30.628,7.928
30.632,7.924
30.636,7.924
30.64,7.904
30.644,7.936
30.648,7.908
30.652,7.932
30.656,7.964
30.66,7.976
30.664,7.948
30.668,7.952
30.672,7.98
30.676,7.972
30.68,7.972
30.684,7.984
30.688,8.028
30.692,8.076
30.696,8.096
30.7,8.14
30.704,8.156
30.708,8.176
30.712,8.12
30.716,8.064
30.72,8.048
30.724,8.052
30.728,7.972
30.732,7.94
30.736,7.944
30.74,7.94
30.744,7.9
30.748,7.912
30.752,7.904
30.756,7.916
30.76,7.908
30.764,7.9
30.768,7.884
30.772,7.904
30.776,7.892
30.78,7.876
30.784,7.876
30.788,7.884
30.792,7.92
30.796,7.892
30.8,7.884
30.804,7.86
30.808,7.74
30.812,7.664
30.816,7.756
30.82,8.08
30.824,8.616
30.828,9.404
30.832,9.988
30.836,10.612
30.84,11.024
30.844,11.048
30.848,10.804
30.852,9.78
30.856,8.512
30.86,7.824
30.864,7.584
30.868,7.528
30.872,7.592
30.876,7.74
30.88,7.792
30.884,7.868
30.888,7.952
30.892,7.972
30.896,7.92
30.9,7.92
30.904,7.9
30.908,7.916
30.912,7.924
30.916,7.9
30.92,7.948
30.924,7.928
30.928,7.932
30.932,7.904
30.936,7.936
30.94,7.964
30.944,7.948
30.948,7.936
30.952,7.944
30.956,7.992
30.96,7.98
30.964,7.988
30.968,7.968
30.972,7.96
30.976,8
30.98,8.012
30.984,7.996
30.988,8.02
30.992,8.068
30.996,8.04
31,8.036
31.004,8.06
31.008,8.072
31.012,8.08
31.016,8.072
31.02,8.108
31.024,8.152
31.028,8.164
31.032,8.144
31.036,8.176
31.04,8.236
31.044,8.256
31.048,8.26
31.052,8.308
31.056,8.376
31.06,8.38
31.064,8.4
31.068,8.448
31.072,8.512
31.076,8.568
31.08,8.564
31.084,8.588
31.088,8.656
31.092,8.7
31.096,8.688
31.1,8.692
31.104,8.724
31.108,8.696
31.112,8.632
31.116,8.596
31.12,8.532
31.124,8.476
31.128,8.444
31.132,8.352
31.136,8.3
31.14,8.252
31.144,8.18
31.148,8.124
31.152,8.076
31.156,8.064
31.16,8.06
31.164,7.992
31.168,7.96
31.172,7.988
31.176,7.964
31.18,7.964
31.184,7.936
31.188,7.968
31.192,7.976
31.196,7.952
31.2,7.932
31.204,7.928
31.208,7.944
31.212,7.924
31.216,7.94
31.22,7.948
31.224,7.98
31.228,7.948
31.232,7.956
31.236,7.96
31.24,7.96
31.244,7.98
31.248,7.968
31.252,7.972
31.256,8.012
31.26,8.004
31.264,7.988
31.268,7.976
31.272,7.992
31.276,7.996
31.28,7.984
31.284,7.988
31.288,8.024
31.292,8.044
31.296,7.988
31.3,7.992
31.304,8.008
31.308,8.016
31.312,8.004
31.316,7.976
31.32,8.004
31.324,8.024
31.328,8.008
31.332,8.008
31.336,8.016
31.34,8.008
31.344,8.008
31.348,7.988
31.352,8.008
31.356,8.012
31.36,8.036
31.364,8.032
31.368,8.024
31.372,8.036
31.376,8.064
31.38,8.052
31.384,8.08
31.388,8.112
31.392,8.136
31.396,8.152
31.4,8.184
31.404,8.252
31.408,8.252
31.412,8.228
31.416,8.156
31.42,8.136
31.424,8.128
31.428,8.132
31.432,8.052
31.436,8.056
31.44,8.076
31.444,8.052
31.448,7.996
31.452,7.992
31.456,8
31.46,8.004
31.464,7.984
31.468,7.964
31.472,7.992
31.476,7.976
31.48,7.972
31.484,7.976
31.488,7.968
31.492,8.008
31.496,7.988
31.5,7.968
31.504,7.964
31.508,7.944
31.512,7.852
31.516,7.8
31.52,7.968
31.524,8.304
31.528,8.864
31.532,9.484
31.536,10.136
31.54,10.756
31.544,11.124
31.548,11.18
31.552,10.936
31.556,9.92
31.56,8.628
31.564,7.956
31.568,7.708
31.572,7.688
31.576,7.796
31.58,7.872
31.584,7.94
31.588,8.048
31.592,8.048
31.596,8.016
31.6,8.016
31.604,8.004
31.608,8.012
31.612,8.008
31.616,8.016
31.62,8.028
31.624,8.044
31.628,8.028
31.632,8.036
31.636,8
31.64,8.036
31.644,8.04
31.648,8.036
31.652,8.044
31.656,8.08
31.66,8.08
31.664,8.04
31.668,8.04
31.672,8.068
31.676,8.08
31.68,8.068
31.684,8.068
31.688,8.108
31.692,8.104
31.696,8.08
31.7,8.096
31.704,8.116
31.708,8.1
31.712,8.132
31.716,8.116
31.72,8.132
31.724,8.172
31.728,8.208
31.732,8.2
31.736,8.232
31.74,8.284
31.744,8.284
31.748,8.308
31.752,8.348
31.756,8.408
31.76,8.444
31.764,8.468
31.768,8.484
31.772,8.548
31.776,8.584
31.78,8.616
31.784,8.656
31.788,8.728
31.792,8.76
31.796,8.768
31.8,8.768
31.804,8.768
31.808,8.764
31.812,8.712
31.816,8.688
31.82,8.64
31.824,8.608
31.828,8.54
31.832,8.452
31.836,8.372
31.84,8.328
31.844,8.272
31.848,8.204
31.852,8.18
31.856,8.132
31.86,8.132
31.864,8.072
31.868,8.044
31.872,8.012
31.876,8.032
31.88,8.008
31.884,7.992
31.888,7.996
31.892,8.016
31.896,7.992
31.9,7.992
31.904,8
31.908,7.964
31.912,7.988
31.916,7.976
31.92,7.972
31.924,8.008
31.928,8.004
31.932,7.98
31.936,7.984
31.94,7.992
31.944,7.988
31.948,7.996
31.952,7.956
31.956,8.008
31.96,8.016
31.964,7.96
31.968,7.964
31.972,7.98
31.976,7.984
31.98,7.944
31.984,7.952
31.988,7.972
31.992,7.988
31.996,7.956
32,7.932
32.004,7.944
32.008,7.944
32.012,7.948
32.016,7.94
32.02,7.98
32.024,8.004
32.028,7.94
32.032,7.944
32.036,7.908
32.04,7.944
32.044,7.932
32.048,7.94
32.052,7.952
32.056,8.004
32.06,8.024
32.064,8.004
32.068,8.02
32.072,8.052
32.076,8.056
32.08,8.052
32.084,8.072
32.088,8.12
32.092,8.18
32.096,8.172
32.1,8.156
32.104,8.148
32.108,8.076
32.112,8.016
32.116,8.008
32.12,8.032
32.124,8.036
32.128,8.028
32.132,8.004
32.136,7.992
32.14,7.956
32.144,7.964
32.148,7.956
32.152,7.972
32.156,7.996
32.16,7.984
32.164,7.992
32.168,7.944
32.172,7.992
32.176,7.988
32.18,7.956
32.184,7.968
32.188,7.992
32.192,8.012
32.196,7.976
32.2,7.856
32.204,7.8
32.208,7.92
32.212,8.232
32.216,8.712
32.22,9.384
32.224,10.024
32.228,10.62
32.232,11.08
32.236,11.176
32.24,11.08
32.244,10.212
32.248,8.872
32.252,8.08
32.256,7.796
32.26,7.732
32.264,7.792
32.268,7.868
32.272,7.964
32.276,8.072
32.28,8.076
32.284,8.052
32.288,8.04
32.292,8.064
32.296,8.024
32.3,8.04
32.304,8.04
32.308,8.048
32.312,8.032
32.316,8.056
32.32,8.072
32.324,8.064
32.328,8.084
32.332,8.06
32.336,8.08
32.34,8.08
32.344,8.088
32.348,8.068
32.352,8.088
32.356,8.132
32.36,8.124
32.364,8.136
32.368,8.124
32.372,8.152
32.376,8.132
32.38,8.124
32.384,8.152
32.388,8.184
32.392,8.196
32.396,8.168
32.4,8.196
32.404,8.208
32.408,8.232
32.412,8.216
32.416,8.244
32.42,8.292
32.424,8.3
32.428,8.304
32.432,8.316
32.436,8.384
32.44,8.4
32.444,8.424
32.448,8.456
32.452,8.512
32.456,8.552
32.46,8.596
32.464,8.64
32.468,8.66
32.472,8.712
32.476,8.772
32.48,8.764
32.484,8.788
32.488,8.816
32.492,8.824
32.496,8.804
32.5,8.776
32.504,8.756
32.508,8.688
32.512,8.596
32.516,8.548
32.52,8.484
32.524,8.448
32.528,8.356
32.532,8.296
32.536,8.224
32.54,8.188
32.544,8.144
32.548,8.124
32.552,8.108
32.556,8.108
32.56,8.096
32.564,8.04
32.568,8.032
32.572,8.044
32.576,8.028
32.58,8.024
32.584,7.996
32.588,8.044
32.592,8.032
32.596,8.004
32.6,7.984
32.604,8.032
32.608,8.06
32.612,8.032
32.616,8.016
32.62,8.024
32.624,8.052
32.628,8.032
32.632,8.024
32.636,8.024
32.64,8.032
32.644,8.04
32.648,8.016
32.652,8.048
32.656,8.052
32.66,8.052
32.664,8.04
32.668,8.036
32.672,8.036
32.676,8.052
32.68,8.036
32.684,8.012
32.688,8.056
32.692,8.052
32.696,8.044
32.7,8.024
32.704,8.032
32.708,8.028
32.712,8.056
32.716,8.04
32.72,8.052
32.724,8.088
32.728,8.1
32.732,8.068
32.736,8.104
32.74,8.108
32.744,8.116
32.748,8.136
32.752,8.168
32.756,8.232
32.76,8.276
32.764,8.264
32.768,8.236
32.772,8.212
32.776,8.172
32.78,8.144
32.784,8.12
32.788,8.124
32.792,8.088
32.796,8.072
32.8,8.052
32.804,8.024
32.808,8.016
32.812,8
32.816,7.976
32.82,8.008
32.824,8.024
32.828,7.988
32.832,7.984
32.836,7.996
32.84,8.004
32.844,8
32.848,7.984
32.852,7.992
32.856,8.004
32.86,7.992
32.864,7.956
32.868,7.864
32.872,7.792
32.876,7.948
32.88,8.22
32.884,8.748
32.888,9.436
32.892,10.08
32.896,10.692
32.9,11.104
32.904,11.184
32.908,11.048
32.912,10.076
32.916,8.768
32.92,8.004
32.924,7.74
32.928,7.676
32.932,7.744
32.936,7.828
32.94,7.924
32.944,8.032
32.948,8.04
32.952,8.04
32.956,8.04
32.96,8.032
32.964,8.028
32.968,8
32.972,8.036
32.976,8.024
32.98,8.012
32.984,8
32.988,8.036
32.992,8.052
32.996,8.04
33,8.02
33.004,8.044
33.008,8.076
33.012,8.064
33.016,8.044
33.02,8.08
33.024,8.096
33.028,8.084
33.032,8.084
33.036,8.076
33.04,8.096
33.044,8.12
33.048,8.092
33.052,8.104
33.056,8.136
33.06,8.152
33.064,8.16
33.068,8.152
33.072,8.192
33.076,8.2
33.08,8.2
33.084,8.212
33.088,8.26
33.092,8.296
33.096,8.284
33.1,8.3
33.104,8.348
33.108,8.4
33.112,8.42
33.116,8.444
33.12,8.504
33.124,8.54
33.128,8.572
33.132,8.604
33.136,8.644
33.14,8.68
33.144,8.72
33.148,8.752
33.152,8.752
33.156,8.804
33.16,8.808
33.164,8.744
33.168,8.728
33.172,8.676
33.176,8.608
33.18,8.556
33.184,8.48
33.188,8.456
33.192,8.372
33.196,8.312
33.2,8.224
33.204,8.196
33.208,8.156
33.212,8.12
33.216,8.076
33.22,8.064
33.224,8.06
33.228,8.036
33.232,8.004
33.236,7.996
33.24,8.004
33.244,7.976
33.248,7.96
33.252,7.964
33.256,8.004
33.26,7.988
33.264,7.972
33.268,7.976
33.272,7.968
33.276,7.992
33.28,7.976
33.284,7.98
33.288,8
33.292,8.004
33.296,7.988
33.3,7.968
33.304,7.98
33.308,7.988
33.312,7.952
33.316,7.984
33.32,7.98
33.324,8.016
33.328,7.976
33.332,7.968
33.336,7.976
33.34,7.992
33.344,7.984
33.348,7.952
33.352,7.972
33.356,7.964
33.36,7.988
33.364,7.96
33.368,7.988
33.372,7.988
33.376,8.02
33.38,8.032
33.384,8.032
33.388,8.052
33.392,8.068
33.396,8.08
33.4,8.1
33.404,8.18
33.408,8.208
33.412,8.228
33.416,8.208
33.42,8.2
33.424,8.128
33.428,8.096
33.432,8.064
33.436,8.04
33.44,8.028
33.444,8.02
33.448,8.012
33.452,7.988
33.456,7.956
33.46,7.94
33.464,7.928
33.468,7.912
33.472,7.94
33.476,7.936
33.48,7.92
33.484,7.908
33.488,7.928
33.492,7.952
33.496,7.924
33.5,7.912
33.504,7.912
33.508,7.94
33.512,7.908
33.516,7.868
33.52,7.8
33.524,7.768
33.528,7.98
33.532,8.288
33.536,8.872
33.54,9.532
33.544,10.164
33.548,10.772
33.552,11.076
33.556,11.136
33.56,10.82
33.564,9.648
33.568,8.328
33.572,7.716
33.576,7.5
33.58,7.516
33.584,7.644
33.588,7.78
33.592,7.904
33.596,7.956
33.6,7.952
33.604,7.968
33.608,7.952
33.612,7.92
33.616,7.932
33.62,7.936
33.624,7.948
33.628,7.948
33.632,7.936
33.636,7.956
33.64,7.96
33.644,7.972
33.648,7.936
33.652,7.96
33.656,7.976
33.66,8.004
33.664,7.964
33.668,7.988
33.672,7.996
33.676,7.988
33.68,7.992
33.684,8.012
33.688,8.056
33.692,8.06
33.696,8.036
33.7,8.028
33.704,8.068
33.708,8.072
33.712,8.084
33.716,8.092
33.72,8.116
33.724,8.12
33.728,8.14
33.732,8.144
33.736,8.164
33.74,8.2
33.744,8.228
33.748,8.24
33.752,8.276
33.756,8.324
33.76,8.372
33.764,8.376
33.768,8.4
33.772,8.448
33.776,8.508
33.78,8.524
33.784,8.568
33.788,8.624
33.792,8.664
33.796,8.688
33.8,8.708
33.804,8.728
33.808,8.76
33.812,8.728
33.816,8.688
33.82,8.664
33.824,8.628
33.828,8.552
33.832,8.484
33.836,8.392
33.84,8.344
33.844,8.292
33.848,8.208
33.852,8.148
33.856,8.12
33.86,8.108
33.864,8.048
33.868,8
33.872,7.992
33.876,7.972
33.88,7.94
33.884,7.916
33.888,7.956
33.892,7.948
33.896,7.916
33.9,7.908
33.904,7.924
33.908,7.928
33.912,7.884
33.916,7.92
33.92,7.912
33.924,7.932
33.928,7.916
33.932,7.912
33.936,7.908
33.94,7.936
33.944,7.92
33.948,7.912
33.952,7.904
33.956,7.924
33.96,7.936
33.964,7.916
33.968,7.912
33.972,7.936
33.976,7.94
33.98,7.912
33.984,7.892
33.988,7.932
33.992,7.932
33.996,7.888
34,7.888
34.004,7.92
34.008,7.924
34.012,7.912
34.016,7.912
34.02,7.936
34.024,7.94
34.028,7.92
34.032,7.948
34.036,7.96
34.04,8.008
34.044,7.992
34.048,7.964
34.052,7.992
34.056,8.052
34.06,8.072
34.064,8.112
34.068,8.152
34.072,8.132
34.076,8.112
34.08,8.048
34.084,8.012
34.088,8.024
34.092,8.008
34.096,7.944
34.1,7.916
34.104,7.92
34.108,7.916
34.112,7.88
34.116,7.84
34.12,7.86
34.124,7.856
34.128,7.856
34.132,7.836
34.136,7.848
34.14,7.84
34.144,7.852
34.148,7.836
34.152,7.836
34.156,7.86
34.16,7.836
34.164,7.84
34.168,7.836
34.172,7.808
34.176,7.76
34.18,7.668
34.184,7.74
34.188,8.068
34.192,8.512
34.196,9.168
34.2,9.776
34.204,10.432
34.208,10.98
34.212,11.076
34.216,11.008
34.22,10.236
34.224,8.864
34.228,7.84
34.232,7.436
34.236,7.36
34.24,7.484
34.244,7.636
34.248,7.744
34.252,7.84
34.256,7.948
34.26,7.916
34.264,7.888
34.268,7.856
34.272,7.904
34.276,7.904
34.28,7.884
34.284,7.868
34.288,7.896
34.292,7.904
34.296,7.9
34.3,7.904
34.304,7.896
34.308,7.928
34.312,7.924
34.316,7.916
34.32,7.948
34.324,7.968
34.328,7.956
34.332,7.956
34.336,7.952
34.34,7.988
34.344,7.956
34.348,7.96
34.352,7.984
34.356,8.004
34.36,8.012
34.364,8.016
34.368,7.996
34.372,8.032
34.376,8.06
34.38,8.04
34.384,8.06
34.388,8.116
34.392,8.132
34.396,8.12
34.4,8.148
34.404,8.172
34.408,8.204
34.412,8.236
34.416,8.26
34.42,8.312
34.424,8.356
34.428,8.4
34.432,8.388
34.436,8.456
34.44,8.5
34.444,8.528
34.448,8.584
34.452,8.608
34.456,8.66
34.46,8.668
34.464,8.676
34.468,8.656
34.472,8.656
34.476,8.64
34.48,8.572
34.484,8.52
34.488,8.484
34.492,8.4
34.496,8.34
34.5,8.252
34.504,8.22
34.508,8.156
34.512,8.104
34.516,8.04
34.52,8.032
34.524,8
34.528,7.96
34.532,7.928
34.536,7.928
34.54,7.912
34.544,7.904
34.548,7.88
34.552,7.884
34.556,7.892
34.56,7.912
34.564,7.88
34.568,7.848
34.572,7.876
34.576,7.9
34.58,7.876
34.584,7.892
34.588,7.872
34.592,7.904
34.596,7.896
34.6,7.876
34.604,7.912
34.608,7.9
34.612,7.884
34.616,7.868
34.62,7.896
34.624,7.916
34.628,7.896
34.632,7.852
34.636,7.896
34.64,7.876
34.644,7.888
34.648,7.872
34.652,7.872
34.656,7.872
34.66,7.884
34.664,7.856
34.668,7.852
34.672,7.88
34.676,7.884
34.68,7.84
34.684,7.844
34.688,7.876
34.692,7.864
34.696,7.828
34.7,7.828
34.704,7.848
34.708,7.864
34.712,7.816
34.716,7.812
34.72,7.828
34.724,7.836
34.728,7.828
34.732,7.812
34.736,7.812
34.74,7.852
34.744,7.86
34.748,7.844
34.752,7.852
34.756,7.884
34.76,7.916
34.764,7.892
34.768,7.888
34.772,7.892
34.776,7.936
34.78,7.976
34.784,8.02
34.788,8.056
34.792,8.072
34.796,8.028
34.8,7.932
34.804,7.916
34.808,7.936
34.812,7.904
34.816,7.868
34.82,7.86
34.824,7.868
34.828,7.832
34.832,7.784
34.836,7.78
34.84,7.796
34.844,7.78
34.848,7.776
34.852,7.764
34.856,7.776
34.86,7.764
34.864,7.768
34.868,7.744
34.872,7.788
34.876,7.772
34.88,7.76
34.884,7.74
34.888,7.768
34.892,7.748
34.896,7.648
34.9,7.58
34.904,7.756
34.908,8.108
34.912,8.612
34.916,9.256
34.92,9.896
34.924,10.564
34.928,10.94
34.932,10.976
34.936,10.76
34.94,9.676
34.944,8.348
34.948,7.576
34.952,7.308
34.956,7.316
34.96,7.472
34.964,7.56
34.968,7.668
34.972,7.812
34.976,7.832
34.98,7.792
34.984,7.792
34.988,7.792
34.992,7.828
34.996,7.808
35,7.792
35.004,7.816
35.008,7.816
35.012,7.808
35.016,7.832
35.02,7.844
35.024,7.868
35.028,7.828
35.032,7.824
35.036,7.848
35.04,7.844
35.044,7.86
35.048,7.86
35.052,7.872
35.056,7.88
35.06,7.9
35.064,7.892
35.068,7.892
35.072,7.916
35.076,7.928
35.08,7.896
35.084,7.92
35.088,7.94
35.092,7.972
35.096,7.968
35.1,7.952
35.104,7.984
35.108,8.016
35.112,8.04
35.116,8.056
35.12,8.104
35.124,8.128
35.128,8.128
35.132,8.172
35.136,8.18
35.14,8.22
35.144,8.264
35.148,8.284
35.152,8.352
35.156,8.4
35.16,8.444
35.164,8.448
35.168,8.492
35.172,8.544
35.176,8.564
35.18,8.584
35.184,8.616
35.188,8.616
35.192,8.628
35.196,8.56
35.2,8.52
35.204,8.472
35.208,8.428
35.212,8.34
35.216,8.3
35.22,8.228
35.224,8.192
35.228,8.12
35.232,8.068
35.236,8.024
35.24,7.988
35.244,7.952
35.248,7.904
35.252,7.908
35.256,7.908
35.26,7.864
35.264,7.86
35.268,7.84
35.272,7.848
35.276,7.84
35.28,7.796
35.284,7.804
35.288,7.84
35.292,7.848
35.296,7.812
35.3,7.8
35.304,7.816
35.308,7.82
35.312,7.824
35.316,7.82
35.32,7.816
35.324,7.836
35.328,7.832
35.332,7.816
35.336,7.832
35.34,7.832
35.344,7.824
35.348,7.812
35.352,7.82
35.356,7.84
35.36,7.856
35.364,7.836
35.368,7.816
35.372,7.832
35.376,7.844
35.38,7.812
35.384,7.82
35.388,7.852
35.392,7.856
35.396,7.844
35.4,7.808
35.404,7.824
35.408,7.828
35.412,7.804
35.416,7.82
35.42,7.832
35.424,7.84
35.428,7.82
35.432,7.804
35.436,7.804
35.44,7.804
35.444,7.812
35.448,7.792
35.452,7.812
35.456,7.836
35.46,7.824
35.464,7.792
35.468,7.772
35.472,7.792
35.476,7.804
35.48,7.772
35.484,7.812
35.488,7.824
35.492,7.808
35.496,7.8
35.5,7.792
35.504,7.796
35.508,7.804
35.512,7.804
35.516,7.816
35.52,7.844
35.524,7.86
35.528,7.864
35.532,7.848
35.536,7.86
35.54,7.872
35.544,7.912
35.548,7.96
35.552,8.008
35.556,8.06
35.56,8.052
35.564,8.004
35.568,7.936
35.572,7.924
35.576,7.912
35.58,7.86
35.584,7.828
35.588,7.844
35.592,7.844
35.596,7.792
35.6,7.772
35.604,7.784
35.608,7.796
35.612,7.772
35.616,7.768
35.62,7.796
35.624,7.804
35.628,7.772
35.632,7.764
35.636,7.784
35.64,7.812
35.644,7.784
35.648,7.756
35.652,7.788
35.656,7.788
35.66,7.688
35.664,7.568
35.668,7.648
35.672,7.952
35.676,8.388
35.68,9.072
35.684,9.696
35.688,10.38
35.692,10.868
35.696,10.932
35.7,10.848
35.704,10.064
35.708,8.74
35.712,7.78
35.716,7.46
35.72,7.38
35.724,7.472
35.728,7.58
35.732,7.676
35.736,7.784
35.74,7.864
35.744,7.832
35.748,7.832
35.752,7.816
35.756,7.848
35.76,7.836
35.764,7.84
35.768,7.84
35.772,7.848
35.776,7.852
35.78,7.832
35.784,7.828
35.788,7.88
35.792,7.888
35.796,7.876
35.8,7.864
35.804,7.868
35.808,7.892
35.812,7.876
35.816,7.912
35.82,7.892
35.824,7.952
35.828,7.916
35.832,7.932
35.836,7.928
35.84,7.956
35.844,7.948
35.848,7.964
35.852,7.976
35.856,7.984
35.86,8.024
35.864,7.992
35.868,8.028
35.872,8.036
35.876,8.072
35.88,8.064
35.884,8.092
35.888,8.14
35.892,8.168
35.896,8.18
35.9,8.188
35.904,8.256
35.908,8.284
35.912,8.316
35.916,8.344
35.92,8.392
35.924,8.46
35.928,8.472
35.932,8.484
35.936,8.544
35.94,8.584
35.944,8.612
35.948,8.62
35.952,8.64
35.956,8.652
35.96,8.624
35.964,8.564
35.968,8.54
35.972,8.496
35.976,8.452
35.98,8.36
35.984,8.308
35.988,8.256
35.992,8.196
35.996,8.124
36,8.084
36.004,8.056
36.008,8.032
36.012,7.98
36.016,7.96
36.02,7.936
36.024,7.956
36.028,7.892
36.032,7.896
36.036,7.88
36.04,7.888
36.044,7.876
36.048,7.884
36.052,7.88
36.056,7.88
36.06,7.908
36.064,7.88
36.068,7.876
36.072,7.904
36.076,7.9
36.08,7.876
36.084,7.884
36.088,7.896
36.092,7.904
36.096,7.876
36.1,7.88
36.104,7.888
36.108,7.904
36.112,7.9
36.116,7.892
36.12,7.912
36.124,7.908
36.128,7.884
36.132,7.888
36.136,7.896
36.14,7.892
36.144,7.888
36.148,7.868
36.152,7.88
36.156,7.892
36.16,7.892
36.164,7.88
36.168,7.872
36.172,7.9
36.176,7.888
36.18,7.852
36.184,7.876
36.188,7.9
36.192,7.88
36.196,7.856
36.2,7.86
36.204,7.852
36.208,7.872
36.212,7.852
36.216,7.844
36.22,7.848
36.224,7.88
36.228,7.832
36.232,7.84
36.236,7.828
36.24,7.852
36.244,7.84
36.248,7.836
36.252,7.844
36.256,7.876
36.26,7.852
36.264,7.844
36.268,7.836
36.272,7.856
36.276,7.856
36.28,7.824
36.284,7.776
36.288,7.844
36.292,7.856
36.296,7.824
36.3,7.824
36.304,7.848
36.308,7.84
36.312,7.812
36.316,7.84
36.32,7.868
36.324,7.864
36.328,7.876
36.332,7.868
36.336,7.872
36.34,7.912
36.344,7.928
36.348,7.904
36.352,7.936
36.356,8.02
36.36,8.072
36.364,8.072
36.368,8.036
36.372,8.064
36.376,7.984
36.38,7.932
36.384,7.92
36.388,7.932
36.392,7.904
36.396,7.868
36.4,7.852
36.404,7.864
36.408,7.832
36.412,7.808
36.416,7.792
36.42,7.816
36.424,7.82
36.428,7.796
36.432,7.78
36.436,7.792
36.44,7.824
36.444,7.804
36.448,7.792
36.452,7.82
36.456,7.808
36.46,7.824
36.464,7.76
36.468,7.68
36.472,7.668
36.476,7.864
36.48,8.144
36.484,8.628
36.488,9.268
36.492,9.88
36.496,10.448
36.5,10.856
36.504,10.98
36.508,10.788
36.512,9.74
36.516,8.404
36.52,7.664
36.524,7.396
36.528,7.396
36.532,7.532
36.536,7.66
36.54,7.78
36.544,7.844
36.548,7.832
36.552,7.828
36.556,7.824
36.56,7.84
36.564,7.824
36.568,7.792
36.572,7.836
36.576,7.852
36.58,7.832
36.584,7.844
36.588,7.864
36.592,7.864
36.596,7.848
36.6,7.844
36.604,7.864
36.608,7.88
36.612,7.848
36.616,7.86
36.62,7.892
36.624,7.908
36.628,7.884
36.632,7.88
36.636,7.924
36.64,7.936
36.644,7.916
36.648,7.944
36.652,7.952
36.656,7.984
36.66,7.98
36.664,7.968
36.668,7.964
36.672,8.02
36.676,8.028
36.68,8.044
36.684,8.06
36.688,8.088
36.692,8.136
36.696,8.14
36.7,8.132
36.704,8.188
36.708,8.24
36.712,8.268
36.716,8.28
36.72,8.332
36.724,8.388
36.728,8.412
36.732,8.436
36.736,8.492
36.74,8.54
36.744,8.576
36.748,8.584
36.752,8.632
36.756,8.672
36.76,8.7
36.764,8.672
36.768,8.644
36.772,8.628
36.776,8.584
36.78,8.504
36.784,8.444
36.788,8.404
36.792,8.324
36.796,8.236
36.8,8.176
36.804,8.136
36.808,8.092
36.812,8.052
36.816,7.996
36.82,7.984
36.824,7.98
36.828,7.924
36.832,7.88
36.836,7.856
36.84,7.892
36.844,7.86
36.848,7.824
36.852,7.848
36.856,7.884
36.86,7.864
36.864,7.832
36.868,7.856
36.872,7.86
36.876,7.88
36.88,7.852
36.884,7.876
36.888,7.86
36.892,7.884
36.896,7.856
36.9,7.852
36.904,7.884
36.908,7.884
36.912,7.876
36.916,7.872
36.92,7.908
36.924,7.904
36.928,7.884
36.932,7.864
36.936,7.884
36.94,7.892
36.944,7.884
36.948,7.868
36.952,7.864
36.956,7.896
36.96,7.876
36.964,7.848
36.968,7.864
36.972,7.884
36.976,7.888
36.98,7.864
36.984,7.876
36.988,7.892
36.992,7.904
36.996,7.872
37,7.86
37.004,7.852
37.008,7.896
37.012,7.868
37.016,7.88
37.02,7.892
37.024,7.888
37.028,7.868
37.032,7.872
37.036,7.864
37.04,7.896
37.044,7.86
37.048,7.88
37.052,7.852
37.056,7.888
37.06,7.876
37.064,7.872
37.068,7.852
37.072,7.864
37.076,7.884
37.08,7.876
37.084,7.852
37.088,7.884
37.092,7.896
37.096,7.864
37.1,7.868
37.104,7.844
37.108,7.864
37.112,7.868
37.116,7.872
37.12,7.864
37.124,7.88
37.128,7.88
37.132,7.86
37.136,7.872
37.14,7.864
37.144,7.884
37.148,7.86
37.152,7.864
37.156,7.872
37.16,7.88
37.164,7.864
37.168,7.84
37.172,7.852
37.176,7.864
37.18,7.832
37.184,7.844
37.188,7.88
37.192,7.872
37.196,7.86
37.2,7.864
37.204,7.872
37.208,7.88
37.212,7.884
37.216,7.892
37.22,7.92
37.224,7.964
37.228,7.94
37.232,7.92
37.236,7.96
37.24,8.032
37.244,8.084
37.248,8.096
37.252,8.088
37.256,8.1
37.26,8.032
37.264,7.976
37.268,7.956
37.272,7.968
37.276,7.94
37.28,7.916
37.284,7.912
37.288,7.916
37.292,7.896
37.296,7.848
37.3,7.86
37.304,7.88
37.308,7.872
37.312,7.868
37.316,7.88
37.32,7.876
37.324,7.908
37.328,7.9
37.332,7.872
37.336,7.888
37.34,7.9
37.344,7.912
37.348,7.832
37.352,7.756
37.356,7.824
37.36,8.06
37.364,8.412
37.368,9.016
37.372,9.628
37.376,10.26
37.38,10.824
37.384,11.024
37.388,11.124
37.392,10.616
37.396,9.284
37.4,8.092
37.404,7.596
37.408,7.456
37.412,7.544
37.416,7.672
37.42,7.824
37.424,7.968
37.428,8.016
37.432,8
37.436,7.968
37.44,7.964
37.444,7.992
37.448,7.968
37.452,7.984
37.456,7.996
37.46,8
37.464,7.98
37.468,7.972
37.472,7.996
37.476,8
37.48,8.02
37.484,8.008
37.488,8.032
37.492,8.048
37.496,8.012
37.5,8.024
37.504,8.048
37.508,8.056
37.512,8.032
37.516,8.036
37.52,8.068
37.524,8.096
37.528,8.084
37.532,8.084
37.536,8.084
37.54,8.132
37.544,8.104
37.548,8.128
37.552,8.156
37.556,8.168
37.56,8.18
37.564,8.196
37.568,8.184
37.572,8.228
37.576,8.272
37.58,8.284
37.584,8.288
37.588,8.344
37.592,8.404
37.596,8.416
37.6,8.44
37.604,8.5
37.608,8.54
37.612,8.576
37.616,8.6
37.62,8.652
37.624,8.696
37.628,8.728
37.632,8.756
37.636,8.796
37.64,8.804
37.644,8.824
37.648,8.816
37.652,8.828
37.656,8.784
37.66,8.724
37.664,8.656
37.668,8.592
37.672,8.532
37.676,8.48
37.68,8.4
37.684,8.352
37.688,8.324
37.692,8.248
37.696,8.196
37.7,8.144
37.704,8.12
37.708,8.1
37.712,8.072
37.716,8.028
37.72,8.048
37.724,8.044
37.728,8.012
37.732,7.996
37.736,8.004
37.74,8.012
37.744,7.996
37.748,8.008
37.752,7.996
37.756,8.016
37.76,8.008
37.764,7.976
37.768,8.008
37.772,8.02
37.776,8.016
37.78,7.992
37.784,8
37.788,8.02
37.792,8.032
37.796,8.004
37.8,8.004
37.804,8
37.808,8.02
37.812,8.004
37.816,8.004
37.82,7.996
37.824,8.024
37.828,8.012
37.832,8.016
37.836,8.012
37.84,8.008
37.844,7.98
37.848,7.984
37.852,7.972
37.856,8.012
37.86,8.012
37.864,7.988
37.868,8
37.872,8.004
37.876,8.004
37.88,7.972
37.884,7.988
37.888,8
37.892,8.004
37.896,7.964
37.9,7.976
37.904,7.972
37.908,7.996
37.912,7.984
37.916,7.98
37.92,7.972
37.924,8.004
37.928,7.988
37.932,7.98
37.936,7.952
37.94,7.996
37.944,7.972
37.948,7.98
37.952,7.956
37.956,7.988
37.96,7.98
37.964,7.956
37.968,7.968
37.972,7.952
37.976,7.984
37.98,7.944
37.984,7.944
37.988,7.968
37.992,7.984
37.996,7.944
38,7.948
38.004,7.952
38.008,7.984
38.012,7.972
38.016,7.968
38.02,7.96
38.024,7.98
38.028,7.964
38.032,7.956
38.036,7.948
38.04,7.972
38.044,7.976
38.048,7.96
38.052,7.964
38.056,7.992
38.06,7.968
38.064,7.944
38.068,7.908
38.072,7.964
38.076,7.952
38.08,7.956
38.084,7.972
38.088,7.992
38.092,7.984
38.096,7.96
38.1,7.948
38.104,7.952
38.108,7.956
38.112,7.936
38.116,7.944
38.12,7.968
38.124,7.964
38.128,7.968
38.132,7.968
38.136,7.992
38.14,8.016
38.144,8.024
38.148,8.04
38.152,8.1
38.156,8.144
38.16,8.176
38.164,8.164
38.168,8.176
38.172,8.144
38.176,8.108
38.18,8.076
38.184,8.072
38.188,8.028
38.192,8.02
38.196,7.984
38.2,7.956
38.204,7.96
38.208,7.948
38.212,7.94
38.216,7.916
38.22,7.952
38.224,7.96
38.228,7.916
38.232,7.916
38.236,7.924
38.24,7.928
38.244,7.948
38.248,7.916
38.252,7.94
38.256,7.984
38.26,7.888
38.264,7.76
38.268,7.748
38.272,7.976
38.276,8.328
38.28,8.904
38.284,9.58
38.288,10.244
38.292,10.844
38.296,11.084
38.3,11.112
38.304,10.692
38.308,9.512
38.312,8.276
38.316,7.68
38.32,7.504
38.324,7.552
38.328,7.648
38.332,7.744
38.336,7.908
38.34,8.024
38.344,8.008
38.348,7.992
38.352,7.984
38.356,8.012
38.36,8.004
38.364,7.988
38.368,7.98
38.372,7.984
38.376,8.016
38.38,7.964
38.384,7.98
38.388,8.012
38.392,8.012
38.396,7.972
38.4,7.996
38.404,8.02
38.408,8.02
38.412,8.016
38.416,8.024
38.42,8.052
38.424,8.048
38.428,8.028
38.432,8.02
38.436,8.052
38.44,8.04
38.444,8.084
38.448,8.072
38.452,8.1
38.456,8.132
38.46,8.116
38.464,8.108
38.468,8.132
38.472,8.172
38.476,8.176
38.48,8.18
38.484,8.188
38.488,8.256
38.492,8.26
38.496,8.26
38.5,8.284
38.504,8.328
38.508,8.352
38.512,8.404
38.516,8.444
38.52,8.468
38.524,8.532
38.528,8.564
38.532,8.572
38.536,8.62
38.54,8.692
38.544,8.724
38.548,8.736
38.552,8.74
38.556,8.784
38.56,8.792
38.564,8.756
38.568,8.72
38.572,8.704
38.576,8.648
38.58,8.584
38.584,8.532
38.588,8.496
38.592,8.428
38.596,8.328
38.6,8.288
38.604,8.24
38.608,8.188
38.612,8.136
38.616,8.092
38.62,8.068
38.624,8.064
38.628,8.012
38.632,7.972
38.636,8.004
38.64,7.988
38.644,7.98
38.648,7.968
38.652,7.94
38.656,7.98
38.66,7.976
38.664,7.944
38.668,7.944
38.672,7.952
38.676,7.956
38.68,7.956
38.684,7.952
38.688,7.984
38.692,7.988
38.696,7.952
38.7,7.956
38.704,7.98
38.708,7.98
38.712,7.98
38.716,7.972
38.72,7.988
38.724,7.996
38.728,7.972
38.732,7.96
38.736,7.972
38.74,7.976
38.744,7.984
38.748,7.96
38.752,7.964
38.756,7.988
38.76,7.968
38.764,7.948
38.768,7.924
38.772,7.952
38.776,7.96
38.78,7.944
38.784,7.94
38.788,7.964
38.792,7.98
38.796,7.916
38.8,7.936
38.804,7.96
38.808,7.948
38.812,7.916
38.816,7.912
38.82,7.948
38.824,7.96
38.828,7.94
38.832,7.916
38.836,7.932
38.84,7.948
38.844,7.932
38.848,7.92
38.852,7.904
38.856,7.948
38.86,7.952
38.864,7.928
38.868,7.932
38.872,7.94
38.876,7.96
38.88,7.924
38.884,7.936
38.888,7.944
38.892,7.944
38.896,7.928
38.9,7.912
38.904,7.936
38.908,7.944
38.912,7.916
38.916,7.916
38.92,7.928
38.924,7.952
38.928,7.912
38.932,7.92
38.936,7.936
38.94,7.964
38.944,7.952
38.948,7.992
38.952,8.004
38.956,8.012
38.96,8.024
38.964,8.048
38.968,8.088
38.972,8.164
38.976,8.176
38.98,8.16
38.984,8.088
38.988,8.076
38.992,8.072
38.996,8.024
39,7.984
39.004,7.972
39.008,7.968
39.012,7.952
39.016,7.932
39.02,7.908
39.024,7.944
39.028,7.92
39.032,7.9
39.036,7.904
39.04,7.908
39.044,7.908
39.048,7.892
39.052,7.916
39.056,7.944
39.06,7.904
39.064,7.892
39.068,7.916
39.072,7.872
39.076,7.8
39.08,7.74
39.084,7.864
39.088,8.224
39.092,8.76
39.096,9.436
39.1,10.052
39.104,10.68
39.108,11.084
39.112,11.128
39.116,10.888
39.12,9.876
39.124,8.572
39.128,7.824
39.132,7.588
39.136,7.56
