0,7.968
0.004,7.948
0.008,8.016
0.012,8.024
0.016,7.984
0.02,7.952
0.024,7.984
0.028,8.04
0.032,7.996
0.036,7.964
0.04,7.996
0.044,8.036
0.048,8.052
0.052,8.012
0.056,8.036
0.06,8.088
0.064,8.072
0.068,8.04
0.072,8.064
0.076,8.096
0.08,8.156
0.084,8.16
0.088,8.164
0.092,8.244
0.096,8.26
0.1,8.132
0.104,8.1
0.108,8.088
0.112,8.132
0.116,8.064
0.12,8.024
0.124,8.06
0.128,8.088
0.132,8.056
0.136,8.016
0.14,7.98
0.144,8.004
0.148,7.976
0.152,7.912
0.156,7.936
0.16,7.992
0.164,8.004
0.168,7.932
0.172,7.984
0.176,7.984
0.18,8.02
0.184,7.976
0.188,7.952
0.192,8.008
0.196,8.036
0.2,7.936
0.204,7.864
0.208,7.9
0.212,8.044
0.216,8.248
0.22,8.664
0.224,9.204
0.228,9.9
0.232,10.576
0.236,10.672
0.24,9.952
0.244,9.056
0.248,8.488
0.252,7.952
0.256,7.64
0.26,7.528
0.264,7.412
0.268,7.412
0.272,7.356
0.276,7.408
0.28,7.552
0.284,7.62
0.288,7.7
0.292,7.784
0.296,7.928
0.3,7.984
0.304,7.996
0.308,8.072
0.312,8.132
0.316,8.108
0.32,8.076
0.324,8.088
0.328,8.16
0.332,8.108
0.336,8.088
0.34,8.168
0.344,8.108
0.348,8.164
0.352,8.116
0.356,8.236
0.36,8.208
0.364,8.44
0.368,8.444
0.372,8.312
0.376,8.104
0.38,8.108
0.384,8.14
0.388,7.992
0.392,8.192
0.396,8.448
0.4,8.48
0.404,8.408
0.408,8.308
0.412,8.508
0.416,8.448
0.42,8.18
0.424,8.336
0.428,8.58
0.432,8.496
0.436,8.408
0.44,8.42
0.444,8.532
0.448,8.74
0.452,8.8
0.456,8.632
0.46,8.704
0.464,8.908
0.468,8.72
0.472,8.848
0.476,9.268
0.48,9.088
0.484,9.04
0.488,9.1
0.492,9.208
0.496,9.312
0.5,9.44
0.504,9.42
0.508,9.444
0.512,9.664
0.516,9.82
0.52,9.664
0.524,9.856
0.528,10.072
0.532,10.02
0.536,9.824
0.54,9.92
0.544,10.084
0.548,10.212
0.552,10.432
0.556,10.3
0.56,10.132
0.564,10.224
0.568,10.068
0.572,9.968
0.576,10.088
0.58,10.168
0.584,9.884
0.588,9.596
0.592,9.632
0.596,9.528
0.6,9.408
0.604,9.232
0.608,9.152
0.612,9.032
0.616,8.904
0.62,8.816
0.624,8.732
0.628,8.712
0.632,8.64
0.636,8.68
0.64,8.7
0.644,8.632
0.648,8.528
0.652,8.424
0.656,8.448
0.66,8.484
0.664,8.456
0.668,8.404
0.672,8.404
0.676,8.46
0.68,8.456
0.684,8.404
0.688,8.328
0.692,8.396
0.696,8.424
0.7,8.328
0.704,8.316
0.708,8.36
0.712,8.396
0.716,8.372
0.72,8.316
0.724,8.288
0.728,8.328
0.732,8.308
0.736,8.172
0.74,8.22
0.744,8.24
0.748,8.152
0.752,8.308
0.756,8.44
0.76,8.148
0.764,8.076
0.768,8.12
0.772,8.164
0.776,8.172
0.78,8.144
0.784,8.08
0.788,8
0.792,8.104
0.796,8.052
0.8,7.98
0.804,8.016
0.808,8.008
0.812,8.152
0.816,8.08
0.82,7.804
0.824,7.836
0.828,7.936
0.832,7.916
0.836,7.852
0.84,7.932
0.844,8.024
0.848,7.976
0.852,7.968
0.856,8
0.86,7.964
0.864,7.952
0.868,8.02
0.872,7.984
0.876,7.976
0.88,7.884
0.884,7.764
0.888,7.848
0.892,8.096
0.896,7.968
0.9,7.792
0.904,7.764
0.908,7.808
0.912,7.976
0.916,7.984
0.92,7.884
0.924,7.988
0.928,7.9
0.932,7.976
0.936,7.768
0.94,7.768
0.944,7.872
0.948,7.808
0.952,7.784
0.956,7.84
0.96,7.912
0.964,7.92
0.968,7.876
0.972,7.936
0.976,7.912
0.98,7.772
0.984,7.82
0.988,7.804
0.992,8.136
0.996,8.072
1,7.772
1.004,7.84
1.008,7.908
1.012,7.936
1.016,7.892
1.02,7.932
1.024,7.96
1.028,8.016
1.032,8.02
1.036,7.968
1.04,7.952
1.044,7.928
1.048,8.164
1.052,8.112
1.056,7.872
1.06,7.912
1.064,7.98
1.068,7.932
1.072,7.98
1.076,8.008
1.08,7.864
1.084,8.032
1.088,7.96
1.092,7.836
1.096,7.936
1.1,7.88
1.104,7.868
1.108,7.916
1.112,7.904
1.116,7.88
1.12,7.88
1.124,7.892
1.128,8.164
1.132,8.196
1.136,7.9
1.14,7.892
1.144,8
1.148,8.008
1.152,7.944
1.156,8.012
1.16,8.12
1.164,8.084
1.168,7.996
1.172,8.036
1.176,8.036
1.18,8.004
1.184,7.94
1.188,7.936
1.192,7.972
1.196,8.024
1.2,7.964
1.204,7.896
1.208,8.02
1.212,8.012
1.216,7.944
1.22,7.944
1.224,8.116
1.228,8.208
1.232,7.952
1.236,7.904
1.24,7.944
1.244,8
1.248,7.952
1.252,7.948
1.256,7.92
1.26,8.04
1.264,8.084
1.268,7.932
1.272,7.98
1.276,7.988
1.28,8.004
1.284,7.98
1.288,7.88
1.292,8.064
1.296,7.988
1.3,7.936
1.304,7.944
1.308,8.004
1.312,7.968
1.316,7.976
1.32,8.012
1.324,8.016
1.328,8.104
1.332,7.932
1.336,8
1.34,8.148
1.344,8
1.348,7.976
1.352,8.004
1.356,8.028
1.36,8.132
1.364,8.14
1.368,8.08
1.372,8.04
1.376,8.136
1.38,8.184
1.384,8.12
1.388,8.104
1.392,8.084
1.396,8.068
1.4,8.028
1.404,8.024
1.408,8.1
1.412,8.016
1.416,8.008
1.42,8.108
1.424,8.1
1.428,7.972
1.432,7.916
1.436,7.936
1.44,8.016
1.444,8.028
1.448,7.904
1.452,7.912
1.456,7.988
1.46,8.028
1.464,7.956
1.468,7.964
1.472,8.008
1.476,8.044
1.48,8.036
1.484,7.92
1.488,7.848
1.492,7.956
1.496,8.148
1.5,8.22
1.504,8.628
1.508,9.44
1.512,9.88
1.516,10.348
1.52,10.712
1.524,9.952
1.528,9.18
1.532,8.676
1.536,8
1.54,7.676
1.544,7.48
1.548,7.372
1.552,7.396
1.556,7.36
1.56,7.364
1.564,7.528
1.568,7.644
1.572,7.736
1.576,7.872
1.58,8.012
1.584,8.096
1.588,8.128
1.592,8.044
1.596,8.028
1.6,8.056
1.604,8.04
1.608,8.116
1.612,8.14
1.616,8.144
1.62,8.136
1.624,8.156
1.628,8.172
1.632,8.1
1.636,8.132
1.64,8.236
1.644,8.212
1.648,8.168
1.652,8.144
1.656,8.124
1.66,8.212
1.664,8.316
1.668,8.26
1.672,8.244
1.676,8.272
1.68,8.276
1.684,8.196
1.688,8.148
1.692,8.448
1.696,8.416
1.7,8.26
1.704,8.328
1.708,8.38
1.712,8.376
1.716,8.344
1.72,8.404
1.724,8.492
1.728,8.428
1.732,8.388
1.736,8.456
1.74,8.504
1.744,8.512
1.748,8.684
1.752,8.756
1.756,8.7
1.76,8.656
1.764,8.732
1.768,8.756
1.772,8.828
1.776,8.868
1.78,8.956
1.784,9.024
1.788,9.088
1.792,9.2
1.796,9.28
1.8,9.208
1.804,9.24
1.808,9.364
1.812,9.524
1.816,9.548
1.82,9.568
1.824,9.544
1.828,9.512
1.832,9.5
1.836,9.468
1.84,9.472
1.844,9.512
1.848,9.428
1.852,9.284
1.856,9.292
1.86,9.22
1.864,9.024
1.868,8.916
1.872,8.884
1.876,8.82
1.88,8.688
1.884,8.508
1.888,8.44
1.892,8.4
1.896,8.324
1.9,8.288
1.904,8.308
1.908,8.244
1.912,8.232
1.916,8.08
1.92,8.024
1.924,8.196
1.928,8.112
1.932,8.036
1.936,7.992
1.94,7.928
1.944,7.988
1.948,7.98
1.952,8.016
1.956,8.068
1.96,8.092
1.964,8.036
1.968,7.94
1.972,7.912
1.976,8.02
1.98,7.976
1.984,8.06
1.988,8.016
1.992,8.132
1.996,8.016
2,7.94
2.004,7.96
2.008,8.032
2.012,8.052
2.016,8.012
2.02,8.032
2.024,8
2.028,8.012
2.032,8.012
2.036,7.98
2.04,7.988
2.044,8.08
2.048,8.108
2.052,8.044
2.056,8.012
2.06,7.968
2.064,7.972
2.068,7.952
2.072,7.94
2.076,8.024
2.08,7.972
2.084,8.02
2.088,7.896
2.092,8.004
2.096,7.988
2.1,7.936
2.104,7.932
2.108,8.048
2.112,8.052
2.116,7.86
2.12,7.896
2.124,7.952
2.128,7.968
2.132,7.864
2.136,7.88
2.14,7.932
2.144,8.048
2.148,7.932
2.152,7.856
2.156,7.824
2.16,7.88
2.164,7.932
2.168,7.912
2.172,7.844
2.176,7.864
2.18,7.948
2.184,7.908
2.188,7.792
2.192,7.916
2.196,7.932
2.2,7.844
2.204,7.832
2.208,7.952
2.212,8.032
2.216,7.82
2.22,7.76
2.224,7.812
2.228,7.856
2.232,7.908
2.236,7.94
2.24,7.856
2.244,7.904
2.248,7.968
2.252,7.844
2.256,7.728
2.26,7.812
2.264,7.856
2.268,7.98
2.272,7.796
2.276,7.896
2.28,7.892
2.284,7.868
2.288,7.82
2.292,7.872
2.296,7.928
2.3,7.868
2.304,7.9
2.308,7.884
2.312,7.908
2.316,7.792
2.32,7.772
2.324,7.796
2.328,7.976
2.332,7.988
2.336,7.832
2.34,7.932
2.344,7.94
2.348,7.88
2.352,7.824
2.356,7.908
2.36,7.908
2.364,7.884
2.368,7.88
2.372,7.812
2.376,7.912
2.38,7.928
2.384,7.852
2.388,7.888
2.392,7.98
2.396,7.92
2.4,7.848
2.404,7.784
2.408,7.972
2.412,7.972
2.416,7.84
2.42,7.876
2.424,7.944
2.428,7.944
2.432,7.924
2.436,7.884
2.44,7.864
2.444,7.86
2.448,7.816
2.452,7.928
2.456,7.996
2.46,7.948
2.464,7.948
2.468,7.756
2.472,7.844
2.476,7.924
2.48,7.888
2.484,7.896
2.488,7.872
2.492,8.004
2.496,8
2.5,7.868
2.504,7.86
2.508,8.008
2.512,8.052
2.516,7.968
2.52,7.768
2.524,7.828
2.528,7.92
2.532,7.884
2.536,7.884
2.54,7.924
2.544,7.956
2.548,7.968
2.552,7.912
2.556,7.952
2.56,8.12
2.564,8.108
2.568,8.02
2.572,8.192
2.576,8.18
2.58,8.052
2.584,8.092
2.588,8.012
2.592,8.116
2.596,8.08
2.6,8.008
2.604,7.996
2.608,8.032
2.612,7.868
2.616,7.864
2.62,7.828
2.624,7.856
2.628,8.048
2.632,8.052
2.636,7.788
2.64,7.792
2.644,7.924
2.648,7.948
2.652,7.876
2.656,7.86
2.66,7.876
2.664,7.952
2.668,7.944
2.672,7.872
2.676,7.848
2.68,7.912
2.684,7.872
2.688,7.72
2.692,7.792
2.696,7.988
2.7,8.24
2.704,8.66
2.708,9.3
2.712,10.052
2.716,10.648
2.72,10.48
2.724,9.844
2.728,8.952
2.732,8.224
2.736,7.74
2.74,7.32
2.744,7.332
2.748,7.284
2.752,7.192
2.756,7.232
2.76,7.416
2.764,7.528
2.768,7.532
2.772,7.572
2.776,7.716
2.78,7.84
2.784,7.924
2.788,7.964
2.792,8.012
2.796,7.956
2.8,7.968
2.804,8.168
2.808,8.148
2.812,8.152
2.816,7.956
2.82,8.064
2.824,8.324
2.828,8.12
2.832,8.112
2.836,7.988
2.84,8.096
2.844,8.172
2.848,8.152
2.852,8.14
2.856,8.144
2.86,8.216
2.864,8.22
2.868,8.276
2.872,8.208
2.876,8.24
2.88,8.236
2.884,8.22
2.888,8.224
2.892,8.132
2.896,8.384
2.9,8.484
2.904,8.26
2.908,8.304
2.912,8.328
2.916,8.308
2.92,8.348
2.924,8.416
2.928,8.512
2.932,8.456
2.936,8.46
2.94,8.572
2.944,8.576
2.948,8.596
2.952,8.6
2.956,8.692
2.96,8.74
2.964,8.74
2.968,8.784
2.972,8.888
2.976,9.06
2.98,8.924
2.984,9.072
2.988,9.056
2.992,9.196
2.996,9.312
3,9.332
3.004,9.284
3.008,9.38
3.012,9.492
3.016,9.488
3.02,9.572
3.024,9.616
3.028,9.572
3.032,9.476
3.036,9.528
3.04,9.624
3.044,9.436
3.048,9.304
3.052,9.26
3.056,9.144
3.06,9.304
3.064,9.08
3.068,8.748
3.072,8.76
3.076,8.684
3.08,8.6
3.084,8.42
3.088,8.428
3.092,8.332
3.096,8.36
3.1,8.216
3.104,8.164
3.108,8.112
3.112,8.108
3.116,8.088
3.12,8.064
3.124,8.088
3.128,8.044
3.132,8.012
3.136,7.992
3.14,7.976
3.144,7.98
3.148,8.016
3.152,8.052
3.156,8.192
3.16,8.16
3.164,8.064
3.168,7.948
3.172,7.888
3.176,8.032
3.18,8.168
3.184,8.076
3.188,7.992
3.192,8.088
3.196,8.144
3.2,8.076
3.204,7.96
3.208,8.092
3.212,8.104
3.216,8.064
3.22,8.024
3.224,8.072
3.228,8.028
3.232,8.08
3.236,8.104
3.24,7.924
3.244,7.964
3.248,8.024
3.252,8.004
3.256,7.848
3.26,8.04
3.264,8.132
3.268,7.936
3.272,7.912
3.276,7.952
3.28,8.024
3.284,8.052
3.288,8.004
3.292,8
3.296,8.148
3.3,8.016
3.304,7.9
3.308,7.956
3.312,7.948
3.316,7.972
3.32,8
3.324,8.076
3.328,8.032
3.332,7.888
3.336,7.876
3.34,7.952
3.344,8.092
3.348,8.116
3.352,7.912
3.356,7.76
3.36,7.876
3.364,7.904
3.368,7.86
3.372,7.988
3.376,7.92
3.38,7.976
3.384,7.948
3.388,7.96
3.392,7.916
3.396,8.044
3.4,8.004
3.404,7.852
3.408,7.98
3.412,7.976
3.416,7.912
3.42,7.868
3.424,7.884
3.428,7.988
3.432,8.076
3.436,7.948
3.44,7.9
3.444,7.912
3.448,7.924
3.452,7.916
3.456,7.96
3.46,7.896
3.464,7.94
3.468,7.92
3.472,8.02
3.476,7.984
3.48,7.968
3.484,7.816
3.488,7.856
3.492,8.012
3.496,7.948
3.5,7.944
3.504,7.856
3.508,7.996
3.512,8.08
3.516,7.92
3.52,7.876
3.524,8.132
3.528,7.964
3.532,7.824
3.536,7.916
3.54,8.06
3.544,7.98
3.548,7.928
3.552,7.852
3.556,7.876
3.56,7.936
3.564,7.952
3.568,7.892
3.572,7.88
3.576,7.924
3.58,8
3.584,7.876
3.588,7.976
3.592,7.968
3.596,7.996
3.6,7.916
3.604,7.884
3.608,7.916
3.612,7.992
3.616,7.948
3.62,7.916
3.624,7.968
3.628,7.904
3.632,7.888
3.636,7.952
3.64,8.116
3.644,8.004
3.648,7.932
3.652,7.848
3.656,8.012
3.66,7.976
3.664,8.012
3.668,7.908
3.672,7.848
3.676,7.892
3.68,7.992
3.684,8.008
3.688,7.888
3.692,8.012
3.696,8.14
3.7,8.012
3.704,7.856
3.708,8.004
3.712,8.056
3.716,8.032
3.72,8.06
3.724,8.24
3.728,8.16
3.732,8.168
3.736,8.036
3.74,8.18
3.744,8.048
3.748,8.04
3.752,7.948
3.756,7.956
3.76,7.976
3.764,8
3.768,7.948
3.772,8.004
3.776,7.988
3.78,7.968
3.784,7.924
3.788,7.848
3.792,7.94
3.796,7.924
3.8,7.868
3.804,7.868
3.808,8.052
3.812,7.916
3.816,7.872
3.82,7.824
3.824,7.864
3.828,7.968
3.832,7.828
3.836,8.036
3.84,8.04
3.844,7.836
3.848,7.844
3.852,8.128
3.856,8.512
3.86,9.044
3.864,9.632
3.868,10.3
3.872,10.776
3.876,10.34
3.88,9.388
3.884,8.632
3.888,8.116
3.892,7.744
3.896,7.332
3.9,7.328
3.904,7.268
3.908,7.204
3.912,7.344
3.916,7.424
3.92,7.46
3.924,7.636
3.928,7.824
3.932,7.86
3.936,7.848
3.94,7.932
3.944,8.044
3.948,8.176
3.952,8.068
3.956,8.008
3.96,8.052
3.964,8.18
3.968,8.168
3.972,7.984
3.976,8.132
3.98,8.164
3.984,8.132
3.988,8.088
3.992,8.112
3.996,8.128
4,8.236
4.004,8.38
4.008,8.096
4.012,8.18
4.016,8.196
4.02,8.14
4.024,8.176
4.028,8.268
4.032,8.276
4.036,8.3
4.04,8.292
4.044,8.224
4.048,8.296
4.052,8.292
4.056,8.316
4.06,8.34
4.064,8.324
4.068,8.268
4.072,8.44
4.076,8.544
4.08,8.5
4.084,8.42
4.088,8.396
4.092,8.468
4.096,8.552
4.1,8.608
4.104,8.612
4.108,8.696
4.112,8.704
4.116,8.7
4.12,8.72
4.124,8.844
4.128,9.004
4.132,8.876
4.136,8.928
4.14,9.108
4.144,9.064
4.148,9.172
4.152,9.252
4.156,9.24
4.16,9.4
4.164,9.432
4.168,9.468
4.172,9.444
4.176,9.436
4.18,9.556
4.184,9.532
4.188,9.536
4.192,9.548
4.196,9.436
4.2,9.372
4.204,9.316
4.208,9.332
4.212,9.176
4.216,9.028
4.22,8.88
4.224,8.724
4.228,8.656
4.232,8.712
4.236,8.588
4.24,8.364
4.244,8.36
4.248,8.304
4.252,8.164
4.256,8.168
4.26,8.176
4.264,8.212
4.268,8.108
4.272,8.004
4.276,8.036
4.28,8.08
4.284,8.044
4.288,7.992
4.292,8.024
4.296,7.956
4.3,7.884
4.304,7.964
4.308,7.972
4.312,8.024
4.316,7.952
4.32,7.852
4.324,7.908
4.328,8.036
4.332,8.036
4.336,7.968
4.34,7.924
4.344,7.976
4.348,7.964
4.352,8.056
4.356,7.992
4.36,7.98
4.364,7.912
4.368,7.988
4.372,8
4.376,7.952
4.38,7.996
4.384,7.948
4.388,8
4.392,8.036
4.396,8.016
4.4,7.94
4.404,7.94
4.408,7.892
4.412,8.036
4.416,8.096
4.42,7.904
4.424,7.972
4.428,7.972
4.432,7.932
4.436,7.952
4.44,7.908
4.444,8.064
4.448,8.068
4.452,7.864
4.456,7.884
4.46,7.96
4.464,7.896
4.468,7.844
4.472,8
4.476,7.86
4.48,7.952
4.484,7.904
4.488,7.9
4.492,8.004
4.496,7.932
4.5,7.848
4.504,7.82
4.508,7.924
4.512,7.984
4.516,7.832
4.52,7.86
4.524,7.824
4.528,7.884
4.532,7.852
4.536,7.844
4.54,7.876
4.544,7.944
4.548,7.96
4.552,7.88
4.556,7.816
4.56,7.86
4.564,7.976
4.568,7.888
4.572,7.848
4.576,7.856
4.58,7.968
4.584,7.892
4.588,7.784
4.592,7.824
4.596,7.904
4.6,7.868
4.604,7.748
4.608,7.84
4.612,7.928
4.616,7.808
4.62,7.824
4.624,7.816
4.628,7.824
4.632,7.98
4.636,7.956
4.64,7.752
4.644,7.784
4.648,7.9
4.652,7.784
4.656,7.86
4.66,7.86
4.664,7.884
4.668,7.94
4.672,7.788
4.676,7.848
4.68,7.848
4.684,7.82
4.688,7.844
4.692,7.924
4.696,7.92
4.7,7.836
4.704,7.676
4.708,7.776
4.712,7.844
4.716,7.868
4.72,7.848
4.724,7.872
4.728,7.908
4.732,7.9
4.736,7.816
4.74,7.86
4.744,7.88
4.748,7.904
4.752,7.868
4.756,7.764
4.76,7.896
4.764,7.82
4.768,7.768
4.772,7.832
4.776,7.932
4.78,7.912
4.784,7.816
4.788,7.832
4.792,7.876
4.796,7.856
4.8,7.88
4.804,7.844
4.808,7.788
4.812,7.844
4.816,7.828
4.82,7.796
4.824,7.804
4.828,7.908
4.832,7.9
4.836,7.812
4.84,7.9
4.844,7.892
4.848,7.888
4.852,7.904
4.856,7.9
4.86,7.916
4.864,7.888
4.868,7.928
4.872,7.74
4.876,7.768
4.88,7.88
4.884,7.904
4.888,7.804
4.892,7.888
4.896,7.9
4.9,7.82
4.904,7.824
4.908,7.852
4.912,7.884
4.916,7.944
4.92,7.864
4.924,7.856
4.928,7.916
4.932,7.908
4.936,7.932
4.94,7.828
4.944,7.992
4.948,8.1
4.952,7.98
4.956,7.92
4.96,8.04
4.964,8.148
4.968,7.956
4.972,7.948
4.976,8.044
4.98,8.02
4.984,7.924
4.988,7.988
4.992,8.02
4.996,7.864
5,7.86
5.004,7.84
5.008,7.86
5.012,7.888
5.016,7.944
5.02,7.74
5.024,7.78
5.028,7.832
5.032,7.812
5.036,7.72
5.04,7.764
5.044,7.968
5.048,7.896
5.052,7.756
5.056,7.832
5.06,7.864
5.064,7.868
5.068,7.792
5.072,7.708
5.076,7.664
5.08,7.82
5.084,8.028
5.088,8.28
5.092,8.736
5.096,9.384
5.1,10.16
5.104,10.724
5.108,10.316
5.112,9.572
5.116,8.552
5.12,7.9
5.124,7.532
5.128,7.304
5.132,7.192
5.136,7.148
5.14,7.156
5.144,7.236
5.148,7.324
5.152,7.316
5.156,7.408
5.16,7.54
5.164,7.676
5.168,7.752
5.172,7.8
5.176,7.924
5.18,7.992
5.184,7.856
5.188,7.92
5.192,8.016
5.196,8.044
5.2,8.02
5.204,7.944
5.208,8.056
5.212,8.124
5.216,8.056
5.22,7.976
5.224,8
5.228,8.1
5.232,8.096
5.236,8.052
5.24,8.156
5.244,8.164
5.248,8.096
5.252,8.052
5.256,8.108
5.26,8.212
5.264,8.212
5.268,8.116
5.272,8.14
5.276,8.156
5.28,8.208
5.284,8.2
5.288,8.144
5.292,8.392
5.296,8.4
5.3,8.216
5.304,8.24
5.308,8.348
5.312,8.364
5.316,8.436
5.32,8.388
5.324,8.42
5.328,8.464
5.332,8.564
5.336,8.5
5.34,8.58
5.344,8.624
5.348,8.656
5.352,8.8
5.356,8.776
5.36,8.796
5.364,8.904
5.368,8.96
5.372,8.992
5.376,9.208
5.38,9.24
5.384,9.3
5.388,9.276
5.392,9.392
5.396,9.496
5.4,9.42
5.404,9.496
5.408,9.636
5.412,9.58
5.416,9.484
5.42,9.404
5.424,9.44
5.428,9.46
5.432,9.436
5.436,9.292
5.44,9.16
5.444,9.148
5.448,9.028
5.452,8.932
5.456,8.716
5.46,8.644
5.464,8.596
5.468,8.492
5.472,8.312
5.476,8.392
5.48,8.348
5.484,8.108
5.488,8.16
5.492,8.108
5.496,8.072
5.5,7.956
5.504,7.936
5.508,7.92
5.512,7.992
5.516,8.012
5.52,7.924
5.524,7.904
5.528,7.956
5.532,7.984
5.536,7.936
5.54,7.908
5.544,7.892
5.548,7.956
5.552,7.984
5.556,7.928
5.56,7.964
5.564,8.044
5.568,7.904
5.572,7.812
5.576,7.94
5.58,8.06
5.584,7.936
5.588,7.928
5.592,7.948
5.596,7.916
5.6,7.92
5.604,7.936
5.608,7.98
5.612,7.948
5.616,7.852
5.62,7.84
5.624,7.864
5.628,7.892
5.632,7.984
5.636,7.988
5.64,7.94
5.644,8.004
5.648,7.936
5.652,7.86
5.656,7.96
5.66,7.884
5.664,7.996
5.668,7.928
5.672,7.772
5.676,7.812
5.68,7.86
5.684,7.82
5.688,7.836
5.692,7.992
5.696,7.896
5.7,7.76
5.704,7.84
5.708,7.828
5.712,8.032
5.716,7.88
5.72,7.764
5.724,7.824
5.728,7.928
5.732,7.916
5.736,7.848
5.74,7.776
5.744,7.784
5.748,7.88
5.752,7.804
5.756,7.852
5.76,7.88
5.764,7.868
5.768,7.772
5.772,7.748
5.776,7.84
5.78,7.904
5.784,7.932
5.788,7.784
5.792,7.788
5.796,7.888
5.8,7.848
5.804,7.796
5.808,7.808
5.812,7.916
5.816,7.956
5.82,7.768
5.824,7.8
5.828,7.904
5.832,7.848
5.836,7.78
5.84,7.78
5.844,7.796
5.848,7.796
5.852,7.824
5.856,7.876
5.86,7.82
5.864,7.88
5.868,7.788
5.872,7.804
5.876,7.86
5.88,7.892
5.884,7.828
5.888,7.828
5.892,7.888
5.896,7.84
5.9,7.768
5.904,7.78
5.908,7.836
5.912,7.94
5.916,7.924
5.92,7.852
5.924,7.776
5.928,7.852
5.932,7.876
5.936,7.932
5.94,7.816
5.944,7.788
5.948,7.836
5.952,7.816
5.956,7.848
5.96,7.86
5.964,7.896
5.968,7.92
5.972,7.916
5.976,8.012
5.98,8.02
5.984,7.848
5.988,7.948
5.992,7.948
5.996,8.036
6,7.996
6.004,8.004
6.008,8.024
6.012,8.148
6.016,8.032
6.02,7.92
6.024,7.956
6.028,7.92
6.032,7.932
6.036,7.948
6.04,7.976
6.044,7.852
6.048,7.932
6.052,7.98
6.056,7.812
6.06,7.848
6.064,7.872
6.068,7.768
6.072,7.796
6.076,7.936
6.08,7.876
6.084,7.784
6.088,7.836
6.092,7.908
6.096,7.896
6.1,7.772
6.104,7.852
6.108,7.944
6.112,7.816
6.116,7.8
6.12,7.764
6.124,7.728
6.128,7.996
6.132,8.328
6.136,8.7
6.14,9.384
6.144,10.228
6.148,10.8
6.152,10.472
6.156,9.704
6.16,8.792
6.164,8.176
6.168,7.732
6.172,7.336
6.176,7.224
6.18,7.276
6.184,7.332
6.188,7.256
6.192,7.188
6.196,7.404
6.2,7.484
6.204,7.636
6.208,7.816
6.212,7.876
6.216,8.028
6.22,8.032
6.224,7.896
6.228,7.988
6.232,7.944
6.236,7.968
6.24,8.004
6.244,8.088
6.248,8.112
6.252,8.116
6.256,8.056
6.26,8.052
6.264,8.164
6.268,8.176
6.272,8.076
6.276,8.128
6.28,8.26
6.284,8.248
6.288,8.052
6.292,8.088
6.296,8.228
6.3,8.332
6.304,8.312
6.308,8.148
6.312,8.156
6.316,8.112
6.32,8.196
6.324,8.408
6.328,8.344
6.332,8.308
6.336,8.232
6.34,8.276
6.344,8.404
6.348,8.484
6.352,8.408
6.356,8.34
6.36,8.472
6.364,8.456
6.368,8.436
6.372,8.424
6.376,8.732
6.38,8.796
6.384,8.576
6.388,8.588
6.392,8.796
6.396,8.792
6.4,8.86
6.404,8.844
6.408,8.924
6.412,9.072
6.416,9.112
6.42,9.124
6.424,9.208
6.428,9.352
6.432,9.44
6.436,9.372
6.44,9.48
6.444,9.556
6.448,9.536
6.452,9.512
6.456,9.552
6.46,9.564
6.464,9.68
6.468,9.616
6.472,9.424
6.476,9.472
6.48,9.48
6.484,9.216
6.488,9.004
6.492,9.08
6.496,9.056
6.5,8.8
6.504,8.652
6.508,8.564
6.512,8.564
6.516,8.456
6.52,8.28
6.524,8.272
6.528,8.312
6.532,8.228
6.536,8.248
6.54,8.088
6.544,8.116
6.548,8.08
6.552,7.972
6.556,7.948
6.56,7.98
6.564,8.132
6.568,8.084
6.572,7.896
6.576,7.996
6.58,8.028
6.584,7.956
6.588,7.92
6.592,8.004
6.596,8.032
6.6,7.972
6.604,7.908
6.608,8.1
6.612,8.112
6.616,8.012
6.62,7.928
6.624,7.864
6.628,8.072
6.632,8.036
6.636,8.032
6.64,8.112
6.644,8.044
6.648,7.94
6.652,7.988
6.656,8.04
6.66,8.116
6.664,8.04
6.668,7.96
6.672,8.004
6.676,8.072
6.68,8.068
6.684,7.988
6.688,7.868
6.692,8.232
6.696,8.1
6.7,7.992
6.704,7.908
6.708,7.948
6.712,7.988
6.716,7.988
6.72,7.988
6.724,8.084
6.728,8.052
6.732,7.944
6.736,8.028
6.74,7.988
6.744,8.084
6.748,7.988
6.752,7.872
6.756,7.944
6.76,7.992
6.764,8.144
6.768,7.984
6.772,7.888
6.776,8.016
6.78,8.028
6.784,8.048
6.788,7.904
6.792,7.94
6.796,8.012
6.8,7.952
6.804,7.948
6.808,7.964
6.812,7.932
6.816,7.964
6.82,7.888
6.824,7.976
6.828,7.976
6.832,7.952
6.836,7.928
6.84,7.92
6.844,7.964
6.848,8.028
6.852,7.964
6.856,7.872
6.86,8.036
6.864,8.064
6.868,8.024
6.872,7.824
6.876,8.048
6.88,7.956
6.884,7.904
6.888,7.816
6.892,7.852
6.896,8.012
6.9,8.036
6.904,7.848
6.908,7.916
6.912,8.036
6.916,7.96
6.92,7.972
6.924,7.9
6.928,8.008
6.932,7.96
6.936,7.96
6.94,7.88
6.944,7.988
6.948,8.124
6.952,7.848
6.956,7.808
6.96,7.924
6.964,8.12
6.968,7.94
6.972,7.888
6.976,7.912
6.98,8.016
6.984,8.036
6.988,7.94
6.992,7.868
6.996,7.956
7,7.944
7.004,7.912
7.008,8.004
7.012,7.892
7.016,7.892
7.02,7.944
7.024,7.932
7.028,8.028
7.032,7.972
7.036,7.92
7.04,7.944
7.044,8
7.048,7.988
7.052,7.988
7.056,7.852
7.06,7.84
7.064,7.972
7.068,8.12
7.072,7.964
7.076,7.94
7.08,8.012
7.084,7.92
7.088,7.936
7.092,7.96
7.096,7.944
7.1,7.988
7.104,7.896
7.108,7.908
7.112,7.904
7.116,8.048
7.12,8.024
7.124,7.964
7.128,7.94
7.132,7.864
7.136,8.016
7.14,8.08
7.144,7.984
7.148,7.92
7.152,7.964
7.156,7.896
7.16,7.96
7.164,8
7.168,7.936
7.172,7.944
7.176,8.036
7.18,7.956
7.184,7.868
7.188,7.92
7.192,7.98
7.196,7.944
7.2,7.98
7.204,8.104
7.208,8.012
7.212,7.924
7.216,7.928
7.22,7.96
7.224,7.876
7.228,8.06
7.232,8.076
7.236,7.88
7.24,7.944
7.244,7.98
7.248,7.96
7.252,7.916
7.256,7.888
7.26,7.944
7.264,8.12
7.268,7.92
7.272,7.92
7.276,8
7.28,8.036
7.284,8.004
7.288,8.044
7.292,8.044
7.296,8
7.3,8.008
7.304,8.064
7.308,8.1
7.312,8.116
7.316,8.176
7.32,8.14
7.324,8.12
7.328,8.148
7.332,8.172
7.336,8.068
7.34,8.012
7.344,8.176
7.348,8.12
7.352,7.932
7.356,7.928
7.36,7.968
7.364,8.032
7.368,8.008
7.372,7.908
7.376,8.068
7.38,8.016
7.384,7.944
7.388,7.864
7.392,7.888
7.396,8.016
7.4,7.892
7.404,7.844
7.408,7.972
7.412,8.012
7.416,7.948
7.42,7.912
7.424,8.08
7.428,7.916
7.432,7.844
7.436,7.904
7.44,7.856
7.444,8.016
7.448,8.384
7.452,8.896
7.456,9.424
7.46,10.06
7.464,10.748
7.468,10.692
7.472,9.844
7.476,8.92
7.48,8.348
7.484,7.776
7.488,7.276
7.492,7.26
7.496,7.384
7.5,7.312
7.504,7.316
7.508,7.412
7.512,7.544
7.516,7.668
7.52,7.68
7.524,7.724
7.528,7.944
7.532,7.972
7.536,8.072
7.54,7.996
7.544,8.028
7.548,8.024
7.552,8.092
7.556,8.148
7.56,8.096
7.564,8.116
7.568,8.1
7.572,8.108
7.576,8.108
7.58,8.208
7.584,8.212
7.588,8.016
7.592,8.148
7.596,8.212
7.6,8.16
7.604,8.096
7.608,8.072
7.612,8.252
7.616,8.172
7.62,8.176
7.624,8.304
7.628,8.272
7.632,8.224
7.636,8.224
7.64,8.216
7.644,8.34
7.648,8.34
7.652,8.208
7.656,8.32
7.66,8.316
7.664,8.364
7.668,8.432
7.672,8.38
7.676,8.52
7.68,8.516
7.684,8.468
7.688,8.46
7.692,8.396
7.696,8.544
7.7,8.58
7.704,8.68
7.708,8.748
7.712,8.72
7.716,8.804
7.72,8.816
7.724,8.872
7.728,8.996
7.732,9.052
7.736,9.036
7.74,8.996
7.744,9.256
7.748,9.296
7.752,9.276
7.756,9.3
7.76,9.472
7.764,9.48
7.768,9.548
7.772,9.388
7.776,9.416
7.78,9.496
7.784,9.428
7.788,9.376
7.792,9.404
7.796,9.404
7.8,9.324
7.804,9.224
7.808,9.132
7.812,9.12
7.816,8.832
7.82,8.688
7.824,8.672
7.828,8.636
7.832,8.472
7.836,8.472
7.84,8.32
7.844,8.248
7.848,8.316
7.852,8.24
7.856,8.096
7.86,8.184
7.864,8.168
7.868,7.988
7.872,7.984
7.876,8.02
7.88,8.04
7.884,7.98
7.888,7.972
7.892,7.992
7.896,8.036
7.9,7.86
7.904,7.98
7.908,8.064
7.912,7.928
7.916,7.988
7.92,7.96
7.924,7.896
7.928,7.972
7.932,7.992
7.936,8.012
7.94,7.94
7.944,7.944
7.948,8.088
7.952,7.932
7.956,7.932
7.96,7.944
7.964,8.008
7.968,7.944
7.972,7.944
7.976,7.992
7.98,8.04
7.984,7.984
7.988,7.896
7.992,7.976
7.996,8.02
8,7.936
8.004,7.976
8.008,8.008
8.012,7.924
8.016,8.012
8.02,7.88
8.024,7.896
8.028,7.996
8.032,8.04
8.036,7.932
8.04,7.876
8.044,7.932
8.048,7.924
8.052,7.92
8.056,7.844
8.06,8.088
8.064,8.06
8.068,7.84
8.072,7.784
8.076,7.9
8.08,7.948
8.084,7.908
8.088,7.976
8.092,7.892
8.096,7.94
8.1,7.884
8.104,7.828
8.108,7.9
8.112,7.916
8.116,7.972
8.12,7.872
8.124,7.8
8.128,7.884
8.132,7.9
8.136,7.864
8.14,7.828
8.144,7.928
8.148,7.932
8.152,7.916
8.156,7.852
8.16,7.9
8.164,7.86
8.168,7.832
8.172,7.856
8.176,7.84
8.18,7.912
8.184,7.816
8.188,7.788
8.192,7.844
8.196,7.952
8.2,7.948
8.204,7.888
8.208,7.812
8.212,7.848
8.216,7.848
8.22,7.852
8.224,7.86
8.228,7.928
8.232,7.884
8.236,7.872
8.24,7.752
8.244,7.912
8.248,7.88
8.252,7.748
8.256,7.768
8.26,7.86
8.264,7.904
8.268,7.884
8.272,7.792
8.276,7.816
8.28,7.908
8.284,7.948
8.288,7.896
8.292,7.808
8.296,7.876
8.3,7.876
8.304,7.772
8.308,7.812
8.312,7.844
8.316,8.028
8.32,7.788
8.324,7.768
8.328,7.9
8.332,7.792
8.336,7.784
8.34,7.784
8.344,7.808
8.348,7.948
8.352,7.944
8.356,7.868
8.36,7.84
8.364,7.804
8.368,7.848
8.372,7.824
8.376,7.916
8.38,7.924
8.384,7.836
8.388,7.728
8.392,7.82
8.396,7.952
8.4,7.944
8.404,7.868
8.408,7.792
8.412,7.848
8.416,7.848
8.42,7.876
8.424,7.88
8.428,7.876
8.432,7.784
8.436,7.876
8.44,7.848
8.444,7.924
8.448,7.984
8.452,7.784
8.456,7.792
8.46,7.868
8.464,7.94
8.468,7.96
8.472,7.856
8.476,7.872
8.48,7.912
8.484,7.94
8.488,7.936
8.492,8.052
8.496,8.04
8.5,8.04
8.504,7.996
8.508,8.028
8.512,8.1
8.516,8.068
8.52,7.872
8.524,8.012
8.528,8.092
8.532,7.916
8.536,7.916
8.54,7.888
8.544,7.972
8.548,7.96
8.552,7.856
8.556,7.832
8.56,7.92
8.564,7.96
8.568,7.84
8.572,7.704
8.576,7.888
8.58,7.888
8.584,7.848
8.588,7.78
8.592,7.82
8.596,7.912
8.6,7.864
8.604,7.844
8.608,7.832
8.612,7.872
8.616,7.848
8.62,7.748
8.624,7.864
8.628,7.852
8.632,8.132
8.636,8.472
8.64,9.064
8.644,9.836
8.648,10.612
8.652,10.82
8.656,9.952
8.66,8.88
8.664,8.188
8.668,7.796
8.672,7.372
8.676,7.228
8.68,7.272
8.684,7.22
8.688,7.208
8.692,7.204
8.696,7.32
8.7,7.52
8.704,7.54
8.708,7.664
8.712,7.904
8.716,7.956
8.72,7.868
8.724,7.856
8.728,7.964
8.732,8.032
8.736,7.944
8.74,7.956
8.744,7.988
8.748,8.088
8.752,8.188
8.756,7.988
8.76,7.976
8.764,8.184
8.768,8.084
8.772,8.032
8.776,8.176
8.78,8.164
8.784,8.192
8.788,8.172
8.792,8.152
8.796,8.14
8.8,8.156
8.804,8.192
8.808,8.212
8.812,8.172
8.816,8.252
8.82,8.24
8.824,8.216
8.828,8.256
8.832,8.324
8.836,8.224
8.84,8.24
8.844,8.456
8.848,8.356
8.852,8.288
8.856,8.36
8.86,8.412
8.864,8.432
8.868,8.48
8.872,8.568
8.876,8.58
8.88,8.68
8.884,8.552
8.888,8.556
8.892,8.704
8.896,8.76
8.9,8.872
8.904,8.872
8.908,8.848
8.912,8.992
8.916,9.04
8.92,9.056
8.924,9.144
8.928,9.308
8.932,9.424
8.936,9.352
8.94,9.308
8.944,9.552
8.948,9.556
8.952,9.436
8.956,9.472
8.96,9.516
8.964,9.652
8.968,9.556
8.972,9.368
8.976,9.46
8.98,9.428
8.984,9.236
8.988,9.108
8.992,9.136
8.996,9.068
9,8.78
9.004,8.604
9.008,8.588
9.012,8.524
9.016,8.468
9.02,8.296
9.024,8.28
9.028,8.376
9.032,8.176
9.036,8.068
9.04,8.036
9.044,8.064
9.048,8.1
9.052,8.076
9.056,7.916
9.06,7.856
9.064,7.984
9.068,7.932
9.072,7.892
9.076,7.988
9.08,8.06
9.084,7.984
9.088,7.88
9.092,7.904
9.096,8.044
9.1,7.952
9.104,7.896
9.108,8.06
9.112,7.956
9.116,8.024
9.12,7.864
9.124,7.868
9.128,7.996
9.132,7.972
9.136,8.028
9.14,8.012
9.144,7.888
9.148,7.928
9.152,7.944
9.156,7.968
9.16,8.056
9.164,7.94
9.168,7.88
9.172,7.844
9.176,7.912
9.18,8.152
9.184,8.108
9.188,7.884
9.192,7.844
9.196,7.956
9.2,7.876
9.204,7.848
9.208,7.984
9.212,8.004
9.216,7.908
9.22,7.744
9.224,7.98
9.228,8.088
9.232,7.904
9.236,7.86
9.24,7.816
9.244,7.952
9.248,7.884
9.252,7.836
9.256,7.864
9.26,7.916
9.264,7.968
9.268,7.996
9.272,7.924
9.276,7.836
9.28,7.936
9.284,7.952
9.288,7.808
9.292,7.868
9.296,8.012
9.3,7.828
9.304,7.896
9.308,7.916
9.312,7.8
9.316,7.892
9.32,7.9
9.324,7.844
9.328,7.956
9.332,7.976
9.336,7.828
9.34,7.82
9.344,7.82
9.348,8.02
9.352,7.928
9.356,7.82
9.36,7.844
9.364,7.992
9.368,8.048
9.372,7.804
9.376,7.836
9.38,7.876
9.384,7.852
9.388,7.92
9.392,7.916
9.396,7.98
9.4,7.868
9.404,7.78
9.408,7.896
9.412,7.9
9.416,7.972
9.42,7.96
9.424,7.936
9.428,7.872
9.432,7.932
9.436,7.908
9.44,7.836
9.444,7.856
9.448,7.944
9.452,7.86
9.456,7.904
9.46,7.94
9.464,7.9
9.468,7.92
9.472,7.916
9.476,7.928
9.48,7.952
9.484,7.904
9.488,7.852
9.492,7.9
9.496,8.052
9.5,7.968
9.504,7.828
9.508,7.856
9.512,7.92
9.516,7.932
9.52,7.844
9.524,7.924
9.528,7.996
9.532,7.96
9.536,7.96
9.54,7.936
9.544,7.948
9.548,7.94
9.552,7.964
9.556,7.828
9.56,7.992
9.564,7.964
9.568,7.864
9.572,7.928
9.576,8.056
9.58,8.032
9.584,7.976
9.588,7.92
9.592,8.052
9.596,8.028
9.6,7.936
9.604,7.956
9.608,8.004
9.612,8.136
9.616,8.248
9.62,8.216
9.624,8.148
9.628,8.124
9.632,8.056
9.636,8.028
9.64,8.016
9.644,8.052
9.648,7.98
9.652,7.972
9.656,8.004
9.66,7.992
9.664,8.08
9.668,8.048
9.672,7.896
9.676,7.908
9.68,7.916
9.684,8.02
9.688,7.944
9.692,7.904
9.696,7.916
9.7,7.948
9.704,7.936
9.708,7.9
9.712,7.964
9.716,8.024
9.72,7.952
9.724,7.98
9.728,7.96
9.732,7.868
9.736,7.796
9.74,7.852
9.744,7.956
9.748,8.268
9.752,8.768
9.756,9.388
9.76,10.112
9.764,10.696
9.768,10.752
9.772,9.968
9.776,9.016
9.78,8.412
9.784,7.944
9.788,7.484
9.792,7.336
9.796,7.32
9.8,7.464
9.804,7.284
9.808,7.248
9.812,7.484
9.816,7.62
9.82,7.716
9.824,7.936
9.828,7.992
9.832,7.936
9.836,8.004
9.84,8.044
9.844,8.052
9.848,8.176
9.852,8.152
9.856,8.104
9.86,8.076
9.864,8.156
9.868,8.204
9.872,8.172
9.876,8.192
9.88,8.312
9.884,8.188
9.888,8.16
9.892,8.188
9.896,8.136
9.9,8.236
9.904,8.232
9.908,8.172
9.912,8.296
9.916,8.368
9.92,8.2
9.924,8.24
9.928,8.364
9.932,8.32
9.936,8.284
9.94,8.368
9.944,8.376
9.948,8.316
9.952,8.38
9.956,8.372
9.96,8.42
9.964,8.44
9.968,8.408
9.972,8.472
9.976,8.54
9.98,8.516
9.984,8.52
9.988,8.576
9.992,8.576
9.996,8.6
10,8.832
10.004,8.776
10.008,8.664
10.012,8.796
10.016,8.928
10.02,8.944
10.024,8.896
10.028,8.968
10.032,9.2
10.036,9.168
10.04,9.128
10.044,9.292
10.048,9.404
10.052,9.344
10.056,9.432
10.06,9.608
10.064,9.568
10.068,9.464
10.072,9.492
10.076,9.532
10.08,9.636
10.084,9.584
10.088,9.524
10.092,9.416
10.096,9.456
10.1,9.384
10.104,9.188
10.108,9.068
10.112,9.068
10.116,8.924
10.12,8.784
10.124,8.684
10.128,8.596
10.132,8.476
10.136,8.464
10.14,8.488
10.144,8.312
10.148,8.304
10.152,8.208
10.156,8.124
10.16,8.072
10.164,8.04
10.168,8.132
10.172,8.06
10.176,8.096
10.18,8.032
10.184,7.968
10.188,8.028
10.192,8.028
10.196,8.12
10.2,7.972
10.204,7.952
10.208,7.948
10.212,7.988
10.216,8.104
10.22,8.04
10.224,7.944
10.228,7.984
10.232,8.16
10.236,8.072
10.24,8.044
10.244,7.88
10.248,8.064
10.252,8.104
10.256,7.984
10.26,8.008
10.264,8.016
10.268,7.948
10.272,7.98
10.276,8.148
10.28,8.04
10.284,8
10.288,8.012
10.292,8.056
10.296,8.188
10.3,8.044
10.304,7.964
10.308,8.064
10.312,8.008
10.316,8.052
10.32,8.056
10.324,7.96
10.328,8.024
10.332,8.108
10.336,8.036
10.34,8.044
10.344,8.024
10.348,7.996
10.352,7.888
10.356,8.016
10.36,8.012
10.364,7.936
10.368,7.932
10.372,7.948
10.376,8.04
10.38,8.188
10.384,7.976
10.388,7.928
10.392,7.904
10.396,7.92
10.4,7.984
10.404,8.108
10.408,7.912
10.412,7.932
10.416,8.012
10.42,8.052
10.424,7.96
10.428,7.936
10.432,7.992
10.436,7.916
10.44,7.9
10.444,7.924
10.448,7.956
10.452,7.884
10.456,8.028
10.46,8.096
10.464,8.02
10.468,7.94
10.472,7.884
10.476,7.88
10.48,7.94
10.484,7.96
10.488,7.968
10.492,8.016
10.496,8
10.5,7.968
10.504,7.944
10.508,7.884
10.512,7.988
10.516,8.016
10.52,7.944
10.524,7.916
10.528,7.988
10.532,8.008
10.536,7.948
10.54,7.816
10.544,7.9
10.548,8.116
10.552,7.892
10.556,7.92
10.56,8.052
10.564,8.036
10.568,7.884
10.572,7.892
10.576,7.956
10.58,7.984
10.584,8.028
10.588,7.924
10.592,7.92
10.596,7.984
10.6,7.98
10.604,7.932
10.608,7.9
10.612,8.04
10.616,8.02
10.62,7.96
10.624,7.816
10.628,7.94
10.632,8.016
10.636,7.924
10.64,7.944
10.644,8.12
10.648,7.972
10.652,8
10.656,7.892
10.66,7.872
10.664,7.96
10.668,7.948
10.672,7.952
10.676,7.952
10.68,8.024
10.684,7.924
10.688,7.972
10.692,7.952
10.696,8
10.7,7.976
10.704,7.896
10.708,7.86
10.712,8.036
10.716,8.036
10.72,7.968
10.724,7.916
10.728,7.984
10.732,7.94
10.736,7.912
10.74,7.904
10.744,7.916
10.748,7.988
10.752,8.052
10.756,7.936
10.76,7.888
10.764,7.972
10.768,7.956
10.772,7.884
10.776,8.056
10.78,8.084
10.784,8.06
10.788,7.804
10.792,7.844
10.796,7.984
10.8,8.092
10.804,7.94
10.808,7.868
10.812,7.996
10.816,8.028
10.82,7.968
10.824,8.02
10.828,7.936
10.832,7.972
10.836,7.992
10.84,7.9
10.844,7.992
10.848,8.032
10.852,7.96
10.856,7.964
10.86,7.896
10.864,7.948
10.868,7.988
10.872,8.016
10.876,7.924
10.88,7.976
10.884,8.048
10.888,7.968
10.892,7.944
10.896,7.932
10.9,8.048
10.904,7.976
10.908,7.844
10.912,8.016
10.916,8.048
10.92,7.984
10.924,8.044
10.928,8.032
10.932,7.952
10.936,7.916
10.94,7.864
10.944,8.032
10.948,7.976
10.952,7.96
10.956,7.988
10.96,7.988
10.964,7.912
10.968,7.952
10.972,8.016
10.976,8.06
10.98,7.964
10.984,8.028
10.988,8.028
10.992,7.988
10.996,8.056
11,8.048
11.004,8.048
11.008,8.084
11.012,8.128
11.016,8.332
11.02,8.092
11.024,8.124
11.028,8.172
11.032,8.184
11.036,8.12
11.04,8.096
11.044,7.992
11.048,8.124
11.052,8.004
11.056,7.952
11.06,7.98
11.064,8.036
11.068,8.056
11.072,7.968
11.076,7.952
11.08,7.976
11.084,8.048
11.088,8.048
11.092,7.876
11.096,7.86
11.1,7.956
11.104,7.972
11.108,7.932
11.112,8.008
11.116,8.004
11.12,7.968
11.124,8.044
11.128,7.94
11.132,7.952
11.136,7.808
11.14,7.82
11.144,8.084
11.148,8.336
11.152,8.664
11.156,9.156
11.16,9.728
11.164,10.672
11.168,10.94
11.172,10
11.176,9.076
11.18,8.48
11.184,7.916
11.188,7.56
11.192,7.368
11.196,7.268
11.2,7.332
11.204,7.336
11.208,7.292
11.212,7.472
11.216,7.648
11.22,7.772
11.224,7.712
11.228,7.828
11.232,8.008
11.236,8.052
11.24,8.076
11.244,8.024
11.248,8.052
11.252,8.076
11.256,8.084
11.26,8.112
11.264,8.176
11.268,8.116
11.272,8.096
11.276,8.232
11.28,8.184
11.284,8.128
11.288,8.14
11.292,8.212
11.296,8.404
11.3,8.112
11.304,8.06
11.308,8.12
11.312,8.256
11.316,8.22
11.32,8.208
11.324,8.3
11.328,8.336
11.332,8.284
11.336,8.188
11.34,8.208
11.344,8.384
11.348,8.34
11.352,8.344
11.356,8.344
11.36,8.376
11.364,8.348
11.368,8.44
11.372,8.42
11.376,8.436
11.38,8.488
11.384,8.524
11.388,8.404
11.392,8.52
11.396,8.572
11.4,8.6
11.404,8.66
11.408,8.672
11.412,8.7
11.416,8.876
11.42,8.856
11.424,8.824
11.428,9.04
11.432,9.092
11.436,9.04
11.44,9.076
11.444,9.304
11.448,9.316
11.452,9.312
11.456,9.32
11.46,9.376
11.464,9.456
11.468,9.448
11.472,9.56
11.476,9.436
11.48,9.5
11.484,9.62
11.488,9.492
11.492,9.38
11.496,9.472
11.5,9.476
11.504,9.216
11.508,9.092
11.512,9.136
11.516,9.08
11.52,8.924
11.524,8.712
11.528,8.628
11.532,8.624
11.536,8.492
11.54,8.42
11.544,8.42
11.548,8.384
11.552,8.284
11.556,8.108
11.56,8.124
11.564,8.084
11.568,8.112
11.572,8.072
11.576,8.068
11.58,8.048
11.584,7.956
11.588,8.032
11.592,7.956
11.596,8.04
11.6,8.016
11.604,7.98
11.608,7.996
11.612,7.968
11.616,7.98
11.62,8
11.624,7.972
11.628,7.988
11.632,8.044
11.636,8.004
11.64,7.944
11.644,8.024
11.648,8.112
11.652,8.008
11.656,8.048
11.66,7.972
11.664,7.952
11.668,7.972
11.672,7.92
11.676,7.98
11.68,8.052
11.684,8.056
11.688,7.996
11.692,7.96
11.696,8.032
11.7,7.952
11.704,7.924
11.708,7.972
11.712,8.144
11.716,8.096
11.72,7.84
11.724,7.876
11.728,7.94
11.732,8.008
11.736,7.98
11.74,7.956
11.744,7.972
11.748,8.024
11.752,8.064
11.756,7.892
11.76,7.776
11.764,7.908
11.768,8.012
11.772,7.792
11.776,7.94
11.78,7.976
11.784,7.924
11.788,7.908
11.792,7.864
11.796,7.956
11.8,7.924
11.804,7.828
11.808,7.892
11.812,7.976
11.816,7.936
11.82,7.924
11.824,7.896
11.828,7.896
11.832,7.98
11.836,7.976
11.84,7.824
11.844,7.868
11.848,7.896
11.852,7.896
11.856,7.848
11.86,7.824
11.864,7.908
11.868,7.976
11.872,7.86
11.876,7.828
11.88,7.884
11.884,7.896
11.888,7.872
11.892,7.796
11.896,7.92
11.9,7.928
11.904,7.892
11.908,7.772
11.912,7.968
11.916,8.016
11.92,7.892
11.924,7.788
11.928,7.764
11.932,7.868
11.936,7.884
11.94,7.912
11.944,7.828
11.948,7.916
11.952,7.996
11.956,7.856
11.96,7.808
11.964,7.852
11.968,7.824
11.972,7.804
11.976,7.94
11.98,7.848
11.984,7.892
11.988,7.896
11.992,7.82
11.996,7.868
12,7.968
12.004,7.884
12.008,7.76
12.012,7.864
12.016,8.032
12.02,8.008
12.024,7.676
12.028,7.812
12.032,7.872
12.036,7.808
12.04,7.864
12.044,7.952
12.048,7.996
12.052,7.872
12.056,7.904
12.06,7.82
12.064,7.892
12.068,7.864
12.072,7.896
12.076,7.996
12.08,7.96
12.084,7.88
12.088,7.812
12.092,7.884
12.096,7.992
12.1,7.944
12.104,7.876
12.108,7.872
12.112,7.984
12.116,8.024
12.12,8.048
12.124,8.076
12.128,7.968
12.132,7.968
12.136,8.056
12.14,8.068
12.144,8.052
12.148,8.172
12.152,8.148
12.156,7.996
12.16,7.96
12.164,8.04
12.168,8.004
12.172,7.92
12.176,7.948
12.18,7.928
12.184,8.004
12.188,7.912
12.192,7.876
12.196,7.968
12.2,7.924
12.204,7.812
12.208,7.816
12.212,7.848
12.216,7.776
12.22,7.848
12.224,7.932
12.228,7.916
12.232,7.832
12.236,7.836
12.24,7.84
12.244,7.984
12.248,8.008
12.252,7.816
12.256,7.78
12.26,7.828
12.264,7.88
12.268,7.996
12.272,8.436
12.276,9.048
12.28,9.684
12.284,10.452
12.288,10.828
12.292,10.32
12.296,9.24
12.3,8.432
12.304,7.936
12.308,7.448
12.312,7.34
12.316,7.236
12.32,7.196
12.324,7.204
12.328,7.232
12.332,7.46
12.336,7.52
12.34,7.476
12.344,7.644
12.348,7.8
12.352,7.832
12.356,7.86
12.36,8
12.364,8.108
12.368,7.98
12.372,8.056
12.376,8.068
12.38,8.088
12.384,8.044
12.388,8.124
12.392,8.16
12.396,8.092
12.4,8.088
12.404,8.108
12.408,8.108
12.412,8.204
12.416,8.136
12.42,8.108
12.424,8.172
12.428,8.288
12.432,8.284
12.436,8.088
12.44,8.112
12.444,8.32
12.448,8.292
12.452,8.26
12.456,8.204
12.46,8.248
12.464,8.356
12.468,8.312
12.472,8.348
12.476,8.308
12.48,8.372
12.484,8.428
12.488,8.332
12.492,8.432
12.496,8.508
12.5,8.472
12.504,8.496
12.508,8.504
12.512,8.692
12.516,8.744
12.52,8.484
12.524,8.604
12.528,8.724
12.532,8.852
12.536,8.816
12.54,8.768
12.544,8.916
12.548,9.084
12.552,9.136
12.556,9.148
12.56,9.144
12.564,9.256
12.568,9.408
12.572,9.328
12.576,9.48
12.58,9.476
12.584,9.592
12.588,9.56
12.592,9.54
12.596,9.66
12.6,9.684
12.604,9.592
12.608,9.6
12.612,9.472
12.616,9.352
12.62,9.288
12.624,9.2
12.628,9.176
12.632,9.112
12.636,8.824
12.64,8.692
12.644,8.744
12.648,8.648
12.652,8.484
12.656,8.412
12.66,8.348
12.664,8.236
12.668,8.2
12.672,8.244
12.676,8.104
12.68,8.16
12.684,8.056
12.688,7.984
12.692,8.012
12.696,8.096
12.7,8.004
12.704,7.932
12.708,8.116
12.712,7.976
12.716,7.948
12.72,8.008
12.724,7.888
12.728,8.088
12.732,8.08
12.736,7.848
12.74,7.892
12.744,8.08
12.748,8.092
12.752,7.948
12.756,7.956
12.76,8.032
12.764,8.02
12.768,8.052
12.772,7.94
12.776,7.976
12.78,8.124
12.784,8.048
12.788,7.944
12.792,7.976
12.796,8.2
12.8,8.084
12.804,7.932
12.808,7.904
12.812,8.072
12.816,8.016
12.82,7.956
12.824,7.928
12.828,8.036
12.832,8.096
12.836,7.952
12.84,7.996
12.844,8.028
12.848,7.996
12.852,7.972
12.856,7.928
12.86,7.968
12.864,8.14
12.868,7.992
12.872,7.944
12.876,7.864
12.88,8.056
12.884,8.052
12.888,7.888
12.892,7.908
12.896,7.908
12.9,7.956
12.904,7.912
12.908,7.956
12.912,8.104
12.916,7.952
12.92,7.888
12.924,7.936
12.928,7.968
12.932,7.92
12.936,8.072
12.94,8.036
12.944,7.932
12.948,8.064
12.952,7.908
12.956,7.928
12.96,7.992
12.964,7.964
12.968,7.968
12.972,7.872
12.976,7.94
12.98,7.98
12.984,7.928
12.988,7.976
12.992,7.952
12.996,8.024
13,7.996
13.004,7.976
13.008,7.876
13.012,7.936
13.016,8.084
13.02,8.056
13.024,7.924
13.028,7.896
13.032,7.92
13.036,8.06
13.04,7.952
13.044,7.948
13.048,8.132
13.052,7.932
13.056,7.832
13.06,7.9
13.064,8.084
13.068,8.152
13.072,7.888
13.076,7.872
13.08,8.052
13.084,7.908
13.088,7.9
13.092,7.944
13.096,7.956
13.1,7.992
13.104,8
13.108,8.036
13.112,7.952
13.116,7.972
13.12,7.952
13.124,7.832
13.128,7.976
13.132,8.088
13.136,8.004
13.14,7.932
13.144,7.932
13.148,8.036
13.152,7.936
13.156,7.968
13.16,7.916
13.164,7.96
13.168,7.972
13.172,7.912
13.176,8.028
13.18,8.1
13.184,8.052
13.188,7.884
13.192,7.9
13.196,7.988
13.2,8.152
13.204,8.032
13.208,7.888
13.212,7.916
13.216,7.992
13.22,8.016
13.224,7.992
13.228,8.076
13.232,7.968
13.236,8.072
13.24,8.052
13.244,7.896
13.248,8.04
13.252,8.216
13.256,7.984
13.26,8.124
13.264,8.284
13.268,8.188
13.272,8.144
13.276,8.124
13.28,8.14
13.284,8.108
13.288,8.032
13.292,8.04
13.296,8.016
13.3,8.056
13.304,8.028
13.308,8.064
13.312,8.088
13.316,8.04
13.32,7.92
13.324,7.856
13.328,7.916
13.332,7.952
13.336,8.112
13.34,7.976
13.344,7.872
13.348,8.024
13.352,7.964
13.356,7.904
13.36,7.876
13.364,7.92
13.368,7.996
13.372,8.08
13.376,7.86
13.38,7.872
13.384,7.94
13.388,7.876
13.392,7.988
13.396,8.312
13.4,8.888
13.404,9.448
13.408,10.032
13.412,10.596
13.416,10.796
13.42,9.924
13.424,9.076
13.428,8.388
13.432,7.868
13.436,7.492
13.44,7.296
13.444,7.312
13.448,7.304
13.452,7.288
13.456,7.54
13.46,7.404
13.464,7.592
13.468,7.74
13.472,7.756
13.476,7.908
13.48,8.088
13.484,8.128
13.488,7.896
13.492,7.988
13.496,8.128
13.5,8.196
13.504,8.04
13.508,8.044
13.512,8.236
13.516,8.28
13.52,8.096
13.524,8.132
13.528,8.14
13.532,8.188
13.536,8.224
13.54,8.18
13.544,8.192
13.548,8.2
13.552,8.224
13.556,8.188
13.56,8.232
13.564,8.36
13.568,8.292
13.572,8.208
13.576,8.22
13.58,8.336
13.584,8.344
13.588,8.244
13.592,8.324
13.596,8.372
13.6,8.48
13.604,8.476
13.608,8.308
13.612,8.404
13.616,8.464
13.62,8.36
13.624,8.516
13.628,8.512
13.632,8.56
13.636,8.544
13.64,8.576
13.644,8.54
13.648,8.7
13.652,8.712
13.656,8.636
13.66,8.888
13.664,8.976
13.668,8.92
13.672,8.872
13.676,8.924
13.68,9.168
13.684,9.168
13.688,9.112
13.692,9.176
13.696,9.388
13.7,9.524
13.704,9.3
13.708,9.328
13.712,9.496
13.716,9.604
13.72,9.716
13.724,9.54
13.728,9.52
13.732,9.5
13.736,9.432
13.74,9.496
13.744,9.388
13.748,9.376
13.752,9.188
13.756,8.972
13.76,8.968
13.764,8.988
13.768,8.796
13.772,8.624
13.776,8.5
13.78,8.508
13.784,8.664
13.788,8.34
13.792,8.108
13.796,8.18
13.8,8.244
13.804,8.264
13.808,8.112
13.812,8.148
13.816,8.116
13.82,7.988
13.824,7.984
13.828,8.004
13.832,8.02
13.836,8.188
13.84,7.972
13.844,7.96
13.848,8.216
13.852,7.964
13.856,7.868
13.86,7.908
13.864,8.012
13.868,8.048
13.872,8.044
13.876,8.02
13.88,7.976
13.884,7.992
13.888,7.94
13.892,7.928
13.896,8.1
13.9,8.112
13.904,7.976
13.908,8.068
13.912,8.004
13.916,8.048
13.92,8.104
13.924,7.992
13.928,8.052
13.932,8.052
13.936,7.984
13.94,8.06
13.944,8.092
13.948,7.94
13.952,8.016
13.956,8.064
13.96,8.044
13.964,7.968
13.968,8.032
13.972,8.024
13.976,7.988
13.98,7.988
13.984,8.032
13.988,7.976
13.992,7.936
13.996,8.076
14,8.1
14.004,8.08
14.008,7.94
14.012,7.988
14.016,8.04
14.02,7.984
14.024,7.98
14.028,7.856
14.032,8.044
14.036,8.148
14.04,7.92
14.044,7.876
14.048,7.948
14.052,7.932
14.056,8.064
14.06,7.952
14.064,7.928
14.068,7.992
14.072,7.908
14.076,7.92
14.08,7.988
14.084,7.984
14.088,7.988
14.092,7.92
14.096,7.956
14.1,8.092
14.104,8.032
14.108,7.916
14.112,7.932
14.116,7.96
14.12,7.976
14.124,7.888
14.128,7.96
14.132,7.972
14.136,7.936
14.14,7.968
14.144,7.924
14.148,7.972
14.152,7.976
14.156,7.952
14.16,8.028
14.164,7.98
14.168,7.952
14.172,7.944
14.176,7.976
14.18,7.992
14.184,7.976
14.188,7.968
14.192,7.884
14.196,8.044
14.2,8.096
14.204,7.96
14.208,7.876
14.212,7.916
14.216,8.004
14.22,7.904
14.224,7.896
14.228,8.068
14.232,7.988
14.236,7.896
14.24,7.924
14.244,7.936
14.248,8.08
14.252,7.968
14.256,7.828
14.26,7.908
14.264,8.012
14.268,7.952
14.272,7.936
14.276,8.02
14.28,8.048
14.284,8.024
14.288,7.86
14.292,7.904
14.296,7.88
14.3,7.968
14.304,7.992
14.308,7.948
14.312,7.904
14.316,8.036
14.32,7.944
14.324,7.904
14.328,7.996
14.332,7.956
14.336,7.892
14.34,7.952
14.344,8.096
14.348,8.028
14.352,7.848
14.356,7.896
14.36,7.884
14.364,7.948
14.368,8.004
14.372,7.952
14.376,7.868
14.38,8.044
14.384,8.1
14.388,7.92
14.392,7.856
14.396,7.944
14.4,8.016
14.404,7.996
14.408,7.916
14.412,8.024
14.416,8.012
14.42,7.924
14.424,7.884
14.428,7.932
14.432,7.996
14.436,8.048
14.44,7.944
14.444,7.888
14.448,7.904
14.452,8.032
14.456,7.904
14.46,7.868
14.464,8.008
14.468,8.1
14.472,7.884
14.476,7.976
14.48,7.936
14.484,7.884
14.488,7.908
14.492,8.08
14.496,7.864
14.5,7.988
14.504,7.956
14.508,7.828
14.512,7.856
14.516,7.988
14.52,7.952
14.524,7.904
14.528,8.028
14.532,8.076
14.536,7.904
14.54,7.884
14.544,7.96
14.548,8
14.552,7.896
14.556,7.896
14.56,7.936
14.564,7.98
14.568,7.952
14.572,7.936
14.576,7.92
14.58,8.04
14.584,8.028
14.588,7.956
14.592,7.96
14.596,7.988
14.6,8.052
14.604,8.072
14.608,7.952
14.612,8.076
14.616,8.06
14.62,8.152
14.624,8.032
14.628,8.148
14.632,8.268
14.636,8.128
14.64,8.1
14.644,7.988
14.648,8.004
14.652,7.992
14.656,7.944
14.66,8
14.664,8.044
14.668,8.112
14.672,8.064
14.676,7.816
14.68,7.952
14.684,7.96
14.688,7.976
14.692,7.92
14.696,7.896
14.7,7.92
14.704,7.888
14.708,7.84
14.712,7.932
14.716,7.992
14.72,7.944
14.724,7.936
14.728,7.928
14.732,7.964
14.736,7.9
14.74,7.84
14.744,7.92
14.748,7.928
14.752,8.156
14.756,8.58
14.76,9
14.764,9.692
14.768,10.456
14.772,10.792
14.776,10.08
14.78,9.208
14.784,8.468
14.788,7.9
14.792,7.552
14.796,7.376
14.8,7.356
14.804,7.284
14.808,7.196
14.812,7.3
14.816,7.46
14.82,7.472
14.824,7.588
14.828,7.684
14.832,7.888
14.836,7.936
14.84,7.888
14.844,7.98
14.848,8.072
14.852,8.052
14.856,7.996
14.86,8.036
14.864,8.1
14.868,8.176
14.872,8.096
14.876,8.052
14.88,8.108
14.884,8.216
14.888,8.092
14.892,7.996
14.896,8.112
14.9,8.156
14.904,8.16
14.908,8.296
14.912,8.228
14.916,8.284
14.92,8.092
14.924,8.084
14.928,8.172
14.932,8.3
14.936,8.188
14.94,8.196
14.944,8.288
14.948,8.352
14.952,8.324
14.956,8.28
14.96,8.324
14.964,8.348
14.968,8.396
14.972,8.348
14.976,8.308
14.98,8.436
14.984,8.484
14.988,8.444
14.992,8.444
14.996,8.54
15,8.548
15.004,8.64
15.008,8.632
15.012,8.708
15.016,8.7
15.02,8.792
15.024,8.832
15.028,8.876
15.032,8.948
15.036,9.008
15.04,9.048
15.044,9.264
15.048,9.208
15.052,9.228
15.056,9.344
15.06,9.276
15.064,9.388
15.068,9.46
15.072,9.476
15.076,9.512
15.08,9.636
15.084,9.592
15.088,9.368
15.092,9.424
15.096,9.472
15.1,9.404
15.104,9.328
15.108,9.176
15.112,9.18
15.116,9.108
15.12,8.876
15.124,8.704
15.128,8.664
15.132,8.616
15.136,8.492
15.14,8.416
15.144,8.356
15.148,8.32
15.152,8.252
15.156,8.148
15.16,8.168
15.164,8.22
15.168,8.044
15.172,8.008
15.176,7.916
15.18,7.996
15.184,7.984
15.188,7.948
15.192,7.928
15.196,8.012
15.2,8.024
15.204,7.98
15.208,7.936
15.212,7.932
15.216,7.976
15.22,7.916
15.224,7.864
15.228,7.98
15.232,8.004
15.236,8.012
15.24,7.972
15.244,7.988
15.248,8.076
15.252,7.956
15.256,7.892
15.26,8.108
15.264,8.132
15.268,8.016
15.272,8.064
15.276,7.848
15.28,7.824
15.284,7.9
15.288,7.956
15.292,7.956
15.296,7.94
15.3,7.948
15.304,8.128
15.308,7.848
15.312,7.964
15.316,8.032
15.32,7.92
15.324,7.892
15.328,7.948
15.332,8.092
15.336,8.064
15.34,7.876
15.344,7.812
15.348,7.916
15.352,7.932
15.356,7.848
15.36,7.86
15.364,7.94
15.368,8.012
15.372,8.044
15.376,7.888
15.38,7.8
15.384,7.884
15.388,7.872
15.392,7.864
15.396,7.924
15.4,7.944
15.404,7.828
15.408,7.852
15.412,7.9
15.416,7.868
15.42,7.904
15.424,7.892
15.428,7.848
15.432,7.988
15.436,7.928
15.44,7.748
15.444,8
15.448,7.992
15.452,7.784
15.456,7.768
15.46,7.912
15.464,7.876
15.468,7.908
15.472,7.824
15.476,7.828
15.48,7.948
15.484,7.872
15.488,7.84
15.492,7.824
15.496,7.908
15.5,7.924
15.504,7.856
15.508,7.804
15.512,7.804
15.516,7.884
15.52,7.912
15.524,7.948
15.528,7.892
15.532,7.82
15.536,7.892
15.54,7.748
15.544,7.792
15.548,7.9
15.552,8.02
15.556,7.692
15.56,7.776
15.564,7.852
15.568,7.856
15.572,7.804
15.576,7.88
15.58,7.92
15.584,7.888
15.588,7.796
15.592,7.848
15.596,8.028
15.6,7.908
15.604,7.78
15.608,7.816
15.612,7.992
15.616,7.828
15.62,7.712
15.624,7.92
15.628,7.876
15.632,7.936
15.636,7.796
15.64,7.76
15.644,7.868
15.648,7.936
15.652,7.86
15.656,7.968
15.66,7.908
15.664,8.032
15.668,7.944
15.672,7.788
15.676,7.868
15.68,7.928
15.684,7.776
15.688,7.92
15.692,7.96
15.696,7.844
15.7,8.008
15.704,8.008
15.708,7.864
15.712,8.016
15.716,8.096
15.72,8.004
15.724,8.168
15.728,8.164
15.732,8.148
15.736,8.084
15.74,8.056
15.744,7.936
15.748,7.984
15.752,8.012
15.756,7.888
15.76,7.92
15.764,8.012
15.768,8.032
15.772,8
15.776,7.836
15.78,7.868
15.784,8.02
15.788,7.952
15.792,7.78
15.796,7.924
15.8,7.944
15.804,7.776
15.808,7.9
15.812,7.948
15.816,7.924
15.82,7.924
15.824,7.916
15.828,7.904
15.832,7.908
15.836,7.872
15.84,7.82
15.844,7.9
15.848,8.004
15.852,8.068
15.856,8.316
15.86,8.988
15.864,9.836
15.868,10.448
15.872,10.764
15.876,10.292
15.88,9.38
15.884,8.572
15.888,8.132
15.892,7.696
15.896,7.44
15.9,7.296
15.904,7.268
15.908,7.308
15.912,7.384
15.916,7.452
15.92,7.428
15.924,7.556
15.928,7.696
15.932,7.824
15.936,7.872
15.94,7.956
15.944,7.964
15.948,8.16
15.952,8.192
15.956,7.976
15.96,7.964
15.964,8.088
15.968,8.168
15.972,8.1
15.976,8.076
15.98,8.156
15.984,8.196
15.988,8.224
15.992,8.16
15.996,8.216
16,8.196
16.004,8.14
16.008,8.288
16.012,8.3
16.016,8.208
16.02,8.24
16.024,8.232
16.028,8.28
16.032,8.324
16.036,8.272
16.04,8.268
16.044,8.296
16.048,8.364
16.052,8.392
16.056,8.24
16.06,8.404
16.064,8.476
16.068,8.452
16.072,8.396
16.076,8.404
16.08,8.552
16.084,8.656
16.088,8.532
16.092,8.404
16.096,8.524
16.1,8.64
16.104,8.788
16.108,8.748
16.112,8.724
16.116,8.844
16.12,8.852
16.124,8.828
16.128,8.952
16.132,9.064
16.136,9.08
16.14,9.136
16.144,9.216
16.148,9.296
16.152,9.336
16.156,9.344
16.16,9.408
16.164,9.552
16.168,9.684
16.172,9.656
16.176,9.532
16.18,9.492
16.184,9.648
16.188,9.624
16.192,9.516
16.196,9.484
16.2,9.436
16.204,9.312
16.208,9.208
16.212,9.152
16.216,9.032
16.22,8.892
16.224,8.808
16.228,8.772
16.232,8.692
16.236,8.5
16.24,8.424
16.244,8.528
16.248,8.352
16.252,8.232
16.256,8.144
16.26,8.156
16.264,8.092
16.268,8.14
16.272,8.096
16.276,8.024
16.28,8.1
16.284,8.072
16.288,8.04
16.292,8.112
16.296,8.072
16.3,8.108
16.304,7.928
16.308,7.98
16.312,8.092
16.316,8.088
16.32,7.896
16.324,7.952
16.328,8.044
16.332,7.948
16.336,8.104
16.34,8.02
16.344,7.94
16.348,8.012
16.352,8.044
16.356,8.032
16.36,8.028
16.364,8.152
16.368,8.156
16.372,8.096
16.376,7.992
16.38,8.056
16.384,8.084
16.388,8.06
16.392,8.048
16.396,8.092
16.4,8.12
16.404,8.06
16.408,8.036
16.412,8.16
16.416,8.288
16.42,8.02
16.424,7.916
16.428,8.012
16.432,8.072
16.436,8.08
16.44,8.032
16.444,7.988
16.448,8.032
16.452,8.072
16.456,8.06
16.46,7.992
16.464,8.016
16.468,8.056
16.472,8
16.476,7.964
16.48,8.016
16.484,8.052
16.488,8
16.492,7.968
16.496,8.012
16.5,8.044
16.504,8.032
16.508,7.98
16.512,8.016
16.516,8.072
16.52,8.028
16.524,8.004
16.528,8.016
16.532,8.024
16.536,7.988
16.54,7.94
16.544,7.972
16.548,8.028
16.552,8.044
16.556,8
16.56,7.972
16.564,7.996
16.568,7.996
16.572,7.964
16.576,7.952
16.58,8.032
16.584,8.076
16.588,8.028
16.592,7.904
16.596,8.012
16.6,8.084
16.604,8.032
16.608,7.964
16.612,7.96
16.616,8.12
16.62,7.96
16.624,7.948
16.628,7.968
16.632,8.072
16.636,8.112
16.64,8.144
16.644,7.944
16.648,7.988
16.652,7.988
16.656,7.896
16.66,8.012
16.664,8.072
16.668,7.992
16.672,8.024
16.676,7.992
16.68,7.976
16.684,8.024
16.688,7.968
16.692,7.956
16.696,8.024
16.7,8.064
16.704,8.048
16.708,8.08
16.712,7.916
16.716,7.976
16.72,7.996
16.724,7.96
16.728,8
16.732,8.084
16.736,8.008
16.74,7.936
16.744,8.004
16.748,8.024
16.752,8.052
16.756,8.024
16.76,7.952
16.764,7.988
16.768,8.256
16.772,7.948
16.776,7.892
16.78,8.072
16.784,8.004
16.788,7.956
16.792,7.952
16.796,7.984
16.8,8.052
16.804,8.036
16.808,7.948
16.812,8.008
16.816,8.076
16.82,8.02
16.824,8.084
16.828,8.072
16.832,7.976
16.836,7.996
16.84,7.988
16.844,7.988
16.848,8.024
16.852,7.996
16.856,8.024
16.86,8.032
16.864,8.012
16.868,8.128
16.872,8.052
16.876,7.976
16.88,8.124
16.884,8.124
16.888,7.988
16.892,7.936
16.896,7.98
16.9,7.964
16.904,8.016
16.908,8.096
16.912,8.164
16.916,8.076
16.92,8.048
16.924,7.984
16.928,8.012
16.932,8.04
16.936,8.036
16.94,8.012
16.944,8.044
16.948,8.144
16.952,8.2
16.956,8.104
16.96,8.1
16.964,8.112
16.968,8.168
16.972,8.148
16.976,8.144
16.98,8.132
16.984,8.3
16.988,8.328
16.992,8.288
16.996,8.2
17,8.192
17.004,8.188
17.008,8.124
17.012,8.188
17.016,8.264
17.02,8.136
17.024,8.056
17.028,8.092
17.032,8.156
17.036,8.148
17.04,8.104
17.044,8.004
17.048,8.016
17.052,8.12
17.056,8.048
17.06,7.952
17.064,8.056
17.068,8.088
17.072,8.028
17.076,8.004
17.08,8.068
17.084,8.112
17.088,8.092
17.092,7.988
17.096,8.04
17.1,8.028
17.104,8.004
17.108,8.1
17.112,8.052
17.116,8.368
17.12,8.736
17.124,9.216
17.128,9.78
17.132,10.648
17.136,11.016
17.14,10.196
17.144,9.292
17.148,8.748
17.152,8.12
17.156,7.684
17.16,7.468
17.164,7.428
17.168,7.412
17.172,7.408
17.176,7.444
17.18,7.688
17.184,7.836
17.188,7.892
17.192,7.912
17.196,8.104
17.2,8.14
17.204,8.156
17.208,8.148
17.212,8.22
17.216,8.352
17.22,8.352
17.224,8.336
17.228,8.392
17.232,8.24
17.236,8.316
17.24,8.276
17.244,8.316
17.248,8.38
17.252,8.484
17.256,8.476
17.26,8.388
17.264,8.4
17.268,8.392
17.272,8.332
17.276,8.38
17.28,8.456
17.284,8.492
17.288,8.384
17.292,8.356
17.296,8.424
17.3,8.488
17.304,8.444
17.308,8.412
17.312,8.464
17.316,8.66
17.32,8.524
17.324,8.468
17.328,8.504
17.332,8.644
17.336,8.656
17.34,8.58
17.344,8.58
17.348,8.644
17.352,8.704
17.356,8.78
17.36,8.74
17.364,8.836
17.368,8.848
17.372,8.86
17.376,8.868
17.38,8.944
17.384,8.964
17.388,9
17.392,8.984
17.396,9.04
17.4,9.172
17.404,9.34
17.408,9.2
17.412,9.368
17.416,9.44
17.42,9.488
17.424,9.524
17.428,9.516
17.432,9.62
17.436,9.644
17.44,9.64
17.444,9.636
17.448,9.652
17.452,9.632
17.456,9.584
17.46,9.46
17.464,9.5
17.468,9.496
17.472,9.3
17.476,9.176
17.48,9.112
17.484,9.024
17.488,8.88
17.492,8.936
17.496,8.82
17.5,8.684
17.504,8.524
17.508,8.472
17.512,8.424
17.516,8.42
17.52,8.356
17.524,8.272
17.528,8.264
17.532,8.284
17.536,8.284
17.54,8.212
17.544,8.208
17.548,8.224
17.552,8.18
17.556,8.096
17.56,8.104
17.564,8.108
17.568,8.164
17.572,8.2
17.576,8.124
17.58,8.06
17.584,8.048
17.588,8.024
17.592,8.028
17.596,8.068
17.6,8.16
17.604,8.228
17.608,8.152
17.612,8.116
17.616,8.108
17.62,8.188
17.624,8.156
17.628,8.188
17.632,8.256
17.636,8.136
17.64,8.092
17.644,8.056
17.648,8.124
17.652,8.148
17.656,8.08
17.66,8.108
17.664,8.224
17.668,8.168
17.672,8.088
17.676,8.024
17.68,8.164
17.684,8.26
17.688,8.108
17.692,8.112
17.696,8.184
17.7,8.196
17.704,8.14
17.708,8.092
17.712,8.116
17.716,8.116
17.72,8.084
17.724,8.06
17.728,8.108
17.732,8.156
17.736,8.112
17.74,7.94
17.744,7.94
17.748,8.08
17.752,8.088
17.756,8.228
17.76,8.04
17.764,8.032
17.768,8.1
17.772,7.988
17.776,7.984
17.78,8.112
17.784,8.172
17.788,8.06
17.792,8
17.796,8.016
17.8,8.088
17.804,8.028
17.808,7.96
17.812,8.04
17.816,8.112
17.82,8.068
17.824,8.06
17.828,8.044
17.832,8.036
17.836,8.04
17.84,8.052
17.844,7.948
17.848,8.036
17.852,8.076
17.856,7.988
17.86,7.988
17.864,7.976
17.868,8.056
17.872,8.08
17.876,7.976
17.88,8.016
17.884,8.072
17.888,8.032
17.892,7.988
17.896,8.032
17.9,8.036
17.904,8.024
17.908,7.972
17.912,8.012
17.916,8.068
17.92,8.072
17.924,8.04
17.928,8.06
17.932,8.048
17.936,7.992
17.94,7.96
17.944,7.968
17.948,8.02
17.952,8.008
17.956,7.96
17.96,7.964
17.964,8.016
17.968,8.036
17.972,7.984
17.976,7.968
17.98,8.008
17.984,8.068
17.988,8.008
17.992,7.988
17.996,7.996
18,8.032
18.004,8.016
18.008,7.968
18.012,7.968
18.016,8.052
18.02,8.036
18.024,7.98
18.028,7.996
18.032,8.032
18.036,8.06
18.04,8.02
18.044,7.984
18.048,8.024
18.052,8.112
18.056,8.032
18.06,7.996
18.064,8
18.068,8.032
18.072,7.98
18.076,8
18.08,8.028
18.084,8.068
18.088,8.048
18.092,7.96
18.096,8.004
18.1,8.04
18.104,8.02
18.108,8
18.112,8.036
18.116,8.06
18.12,8.072
18.124,8.012
18.128,8
18.132,8.052
18.136,8.068
18.14,8.004
18.144,8.004
18.148,8.036
18.152,8.088
18.156,8.056
18.16,8
18.164,8.068
18.168,8.08
18.172,8.056
18.176,7.992
18.18,8.028
18.184,8.076
18.188,8.052
18.192,7.976
18.196,7.988
18.2,8.064
18.204,8.02
18.208,7.992
18.212,8
18.216,8.052
18.22,8.048
18.224,7.988
18.228,8
18.232,8.048
18.236,8.06
18.24,8
18.244,8.032
18.248,8.088
18.252,8.092
18.256,8.092
18.26,8.02
18.264,8.08
18.268,8.132
18.272,8.088
18.276,8.048
18.28,8.12
18.284,8.184
18.288,8.168
18.292,8.156
18.296,8.24
18.3,8.268
18.304,8.196
18.308,8.116
18.312,8.144
18.316,8.14
18.32,8.116
18.324,8.044
18.328,8.052
18.332,8.12
18.336,8.104
18.34,8.028
18.344,8.024
18.348,8.036
18.352,8.068
18.356,8.008
18.36,7.952
18.364,7.968
18.368,7.996
18.372,7.972
18.376,7.92
18.38,8.028
18.384,8.104
18.388,8.112
18.392,7.984
18.396,7.964
18.4,8.036
18.404,7.936
18.408,7.884
18.412,7.916
18.416,8.056
18.42,8.216
18.424,8.644
18.428,9.148
18.432,9.744
18.436,10.464
18.44,10.824
18.444,10.148
18.448,9.276
18.452,8.7
18.456,8.14
18.46,7.684
18.464,7.508
18.468,7.464
18.472,7.384
18.476,7.416
18.48,7.504
18.484,7.672
18.488,7.676
18.492,7.696
18.496,7.788
18.5,7.94
18.504,8.036
18.508,8.088
18.512,8.156
18.516,8.16
18.52,8.128
18.524,8.084
18.528,8.148
18.532,8.244
18.536,8.248
18.54,8.208
18.544,8.18
18.548,8.224
18.552,8.244
18.556,8.228
18.56,8.212
18.564,8.26
18.568,8.316
18.572,8.288
18.576,8.248
18.58,8.328
18.584,8.348
18.588,8.316
18.592,8.276
18.596,8.324
18.6,8.392
18.604,8.348
18.608,8.34
18.612,8.38
18.616,8.42
18.62,8.384
18.624,8.384
18.628,8.5
18.632,8.492
18.636,8.48
18.64,8.472
18.644,8.488
18.648,8.56
18.652,8.584
18.656,8.548
18.66,8.548
18.664,8.648
18.668,8.728
18.672,8.672
18.676,8.728
18.68,8.768
18.684,8.86
18.688,8.916
18.692,8.944
18.696,8.98
18.7,9.068
18.704,9.104
18.708,9.176
18.712,9.176
18.716,9.304
18.72,9.44
18.724,9.472
18.728,9.464
18.732,9.54
18.736,9.552
18.74,9.564
18.744,9.532
18.748,9.62
18.752,9.676
18.756,9.564
18.76,9.532
18.764,9.56
18.768,9.596
18.772,9.416
18.776,9.228
18.78,9.184
18.784,9.14
18.788,8.916
18.792,8.892
18.796,8.904
18.8,8.844
18.804,8.664
18.808,8.528
18.812,8.48
18.816,8.404
18.82,8.388
18.824,8.288
18.828,8.208
18.832,8.248
18.836,8.224
18.84,8.176
18.844,8.156
18.848,8.176
18.852,8.208
18.856,8.084
18.86,8.068
18.864,8.124
18.868,8.132
18.872,8.068
18.876,8.004
18.88,8.084
18.884,8.108
18.888,8.152
18.892,8.104
18.896,8.22
18.9,8.212
18.904,8.132
18.908,8.088
18.912,8.016
18.916,8.104
18.92,8.112
18.924,8.02
18.928,8.136
18.932,8.136
18.936,8.144
18.94,8.096
18.944,8.08
18.948,8.164
18.952,8.192
18.956,8.112
18.96,8.128
18.964,8.136
18.968,8.176
18.972,8.136
18.976,8.068
18.98,8.124
18.984,8.168
18.988,8.12
18.992,8.084
18.996,8.088
19,8.156
19.004,8.128
19.008,8.068
19.012,8.1
19.016,8.128
19.02,8.12
19.024,8.048
19.028,8.068
19.032,8.096
19.036,8.088
19.04,8.04
19.044,8.1
19.048,8.096
19.052,8.084
19.056,8.076
19.06,8.028
19.064,8.088
19.068,8.08
19.072,8.036
19.076,8.056
19.08,8.096
19.084,8.16
19.088,8.04
19.092,7.988
19.096,8.044
19.1,8.084
19.104,8.052
19.108,8.044
19.112,8.06
19.116,8.06
19.12,8.084
19.124,8.06
19.128,8.076
19.132,8.096
19.136,8.092
19.14,8.044
19.144,8
19.148,8.1
19.152,8.092
19.156,8.008
19.16,7.996
19.164,8.064
19.168,8.056
19.172,8.072
19.176,8.02
19.18,8.032
19.184,8.124
19.188,8.064
19.192,8.02
19.196,8.096
19.2,8.108
19.204,8.036
19.208,7.992
19.212,7.992
19.216,8.088
19.22,8.076
19.224,8.032
19.228,8.028
19.232,8.056
19.236,8.084
19.24,8.052
19.244,8.02
19.248,8.064
19.252,8.124
19.256,8.044
19.26,8.02
19.264,8.044
19.268,8.068
19.272,8.084
19.276,8.06
19.28,8.088
19.284,8.084
19.288,8.052
19.292,8.012
19.296,8.064
19.3,8.1
19.304,8.052
19.308,8.032
19.312,8.04
19.316,8.084
19.32,8.088
19.324,8.072
19.328,8.08
19.332,8.104
19.336,8.092
19.34,8.024
19.344,7.996
19.348,8.092
19.352,8.072
19.356,8.04
19.36,8.028
19.364,8.1
19.368,8.092
19.372,8.048
19.376,8.008
19.38,8.064
19.384,8.092
19.388,8.084
19.392,8.04
19.396,8.052
19.4,8.064
19.404,8.068
19.408,8.004
19.412,8.044
19.416,8.092
19.42,8.124
19.424,8.068
19.428,8.024
19.432,8.056
19.436,8.08
19.44,8.048
19.444,8.016
19.448,8.076
19.452,8.076
19.456,8.064
19.46,8.016
19.464,8.092
19.468,8.112
19.472,8.024
19.476,8.04
19.48,8.048
19.484,8.072
19.488,8.044
19.492,7.988
19.496,8.076
19.5,8.068
19.504,8.036
19.508,8.028
19.512,8.044
19.516,8.072
19.52,8.12
19.524,8.056
19.528,7.988
19.532,7.996
19.536,8.056
19.54,8.044
19.544,7.98
19.548,8.028
19.552,8.072
19.556,8.048
19.56,8.024
19.564,8.072
19.568,8.12
19.572,8.068
19.576,8.052
19.58,8.148
19.584,8.216
19.588,8.168
19.592,8.144
19.596,8.196
19.6,8.232
19.604,8.148
19.608,8.116
19.612,8.112
19.616,8.124
19.62,8.084
19.624,8.048
19.628,8.072
19.632,8.132
19.636,8.1
19.64,8.016
19.644,7.984
19.648,8.016
19.652,8.064
19.656,7.984
19.66,7.936
19.664,8
19.668,8.048
19.672,8.012
19.676,8.012
19.68,8.004
19.684,8.02
19.688,8.008
19.692,7.924
19.696,8.044
19.7,8.08
19.704,7.952
19.708,7.924
19.712,7.964
19.716,7.972
19.72,8.144
19.724,8.544
19.728,9.036
19.732,9.62
19.736,10.38
19.74,10.808
19.744,10.144
19.748,9.208
19.752,8.676
19.756,8.124
19.76,7.704
19.764,7.508
19.768,7.448
19.772,7.444
19.776,7.452
19.78,7.42
19.784,7.492
19.788,7.6
19.792,7.64
19.796,7.8
19.8,8
19.804,8.056
19.808,8.072
19.812,8.116
19.816,8.116
19.82,8.108
19.824,8.108
19.828,8.148
19.832,8.2
19.836,8.252
19.84,8.204
19.844,8.216
19.848,8.248
19.852,8.22
19.856,8.16
19.86,8.172
19.864,8.248
19.868,8.364
19.872,8.256
19.876,8.22
19.88,8.284
19.884,8.304
19.888,8.26
19.892,8.336
19.896,8.34
19.9,8.392
19.904,8.372
19.908,8.316
19.912,8.3
19.916,8.384
19.92,8.388
19.924,8.388
19.928,8.412
19.932,8.468
19.936,8.504
19.94,8.46
19.944,8.476
19.948,8.532
19.952,8.572
19.956,8.572
19.96,8.54
19.964,8.632
19.968,8.68
19.972,8.72
19.976,8.676
19.98,8.8
19.984,8.884
19.988,8.852
19.992,8.824
19.996,8.92
20,9.076
20.004,9.152
20.008,9.14
20.012,9.232
20.016,9.32
20.02,9.296
20.024,9.328
20.028,9.396
20.032,9.432
20.036,9.552
20.04,9.596
20.044,9.432
20.048,9.524
20.052,9.632
20.056,9.668
20.06,9.496
20.064,9.392
20.068,9.36
20.072,9.308
20.076,9.296
20.08,9.172
20.084,9.064
20.088,8.932
20.092,8.804
20.096,8.764
20.1,8.716
20.104,8.6
20.108,8.468
20.112,8.396
20.116,8.372
20.12,8.352
20.124,8.3
20.128,8.228
20.132,8.188
20.136,8.188
20.14,8.112
20.144,8.06
20.148,8.092
20.152,8.1
20.156,8.088
20.16,8.032
20.164,8.08
20.168,8.116
20.172,8.036
20.176,8.004
20.18,8.036
20.184,8.092
20.188,8.104
20.192,8
20.196,8.064
20.2,8.096
20.204,8.112
20.208,8.076
20.212,8.08
20.216,8.112
20.22,8.096
20.224,8.048
20.228,8.056
20.232,8.08
20.236,8.136
20.24,8.084
20.244,8.04
20.248,8.052
20.252,8.112
20.256,8.084
20.26,8.028
20.264,8.072
20.268,8.116
20.272,8.08
20.276,8.044
20.28,8.06
20.284,8.088
20.288,8.044
20.292,7.996
20.296,8.02
20.3,8.076
20.304,8.02
20.308,8.008
20.312,7.984
20.316,8.044
20.32,8.072
20.324,8.008
20.328,7.984
20.332,7.992
20.336,8.044
20.34,7.98
20.344,7.948
20.348,8.02
20.352,8.04
20.356,7.988
20.36,7.94
20.364,7.988
20.368,8.008
20.372,7.992
20.376,7.948
20.38,7.956
20.384,8.004
20.388,7.964
20.392,7.932
20.396,7.932
20.4,7.996
20.404,7.992
20.408,7.972
20.412,7.968
20.416,8.012
20.42,7.984
20.424,7.956
20.428,7.936
20.432,7.988
20.436,8.02
20.44,7.964
20.444,7.936
20.448,7.988
20.452,8.028
20.456,7.984
20.46,7.92
20.464,7.98
20.468,8.032
20.472,7.98
20.476,7.952
20.48,7.968
20.484,7.988
20.488,7.968
20.492,7.928
20.496,7.972
20.5,8.016
20.504,8
20.508,7.976
20.512,7.976
20.516,7.996
20.52,8.02
20.524,7.96
20.528,7.948
20.532,8.016
20.536,7.996
20.54,7.98
20.544,7.956
20.548,7.976
20.552,8.036
20.556,7.992
20.56,7.944
20.564,7.98
20.568,8.048
20.572,7.992
20.576,7.96
20.58,8.004
20.584,8.016
20.588,7.98
20.592,7.968
20.596,7.956
20.6,7.996
20.604,8.012
20.608,7.98
20.612,7.984
20.616,7.996
20.62,8.02
20.624,7.964
20.628,7.94
20.632,8.012
20.636,8.036
20.64,7.964
20.644,7.94
20.648,7.98
20.652,8.028
20.656,7.98
20.66,7.924
20.664,8.016
20.668,8.04
20.672,7.984
20.676,7.964
20.68,7.992
20.684,8.032
20.688,8.012
20.692,7.964
20.696,7.968
20.7,8.016
20.704,8.028
20.708,7.972
20.712,7.988
20.716,8.024
20.72,8.024
20.724,7.964
20.728,7.972
20.732,8.024
20.736,8.048
20.74,8.032
20.744,7.972
20.748,7.992
20.752,8.072
20.756,8.032
20.76,7.996
20.764,8.088
20.768,8.124
20.772,8.068
20.776,8.064
20.78,8.1
20.784,8.18
20.788,8.18
20.792,8.172
20.796,8.192
20.8,8.236
20.804,8.16
20.808,8.068
20.812,8.056
20.816,8.088
20.82,8.092
20.824,8.028
20.828,8.02
20.832,8.076
20.836,8.088
20.84,8.052
20.844,7.96
20.848,7.968
20.852,8.016
20.856,7.956
20.86,7.948
20.864,7.968
20.868,8.048
20.872,7.968
20.876,7.936
20.88,7.996
20.884,8.016
20.888,8.016
20.892,7.956
20.896,7.98
20.9,8.012
20.904,7.956
20.908,7.912
20.912,7.976
20.916,8.228
20.92,8.636
20.924,9.108
20.928,9.68
20.932,10.408
20.936,10.88
20.94,10.276
20.944,9.3
20.948,8.676
20.952,8.212
20.956,7.764
20.96,7.42
20.964,7.352
20.968,7.42
20.972,7.412
20.976,7.384
20.98,7.54
20.984,7.664
20.988,7.744
20.992,7.788
20.996,7.912
21,8.04
21.004,8.084
21.008,8.068
21.012,8.064
21.016,8.116
21.02,8.168
21.024,8.144
21.028,8.14
21.032,8.2
21.036,8.228
21.04,8.212
21.044,8.144
21.048,8.192
21.052,8.26
21.056,8.24
21.06,8.196
21.064,8.228
21.068,8.316
21.072,8.276
21.076,8.24
21.08,8.28
21.084,8.328
21.088,8.28
21.092,8.288
21.096,8.288
21.1,8.36
21.104,8.388
21.108,8.336
21.112,8.364
21.116,8.376
21.12,8.428
21.124,8.38
21.128,8.384
21.132,8.464
21.136,8.508
21.14,8.476
21.144,8.468
21.148,8.552
21.152,8.564
21.156,8.576
21.16,8.584
21.164,8.68
21.168,8.744
21.172,8.72
21.176,8.752
21.18,8.812
21.184,8.896
21.188,8.944
21.192,8.956
21.196,9.012
21.2,9.1
21.204,9.2
21.208,9.18
21.212,9.236
21.216,9.344
21.22,9.404
21.224,9.408
21.228,9.444
21.232,9.532
21.236,9.588
21.24,9.572
21.244,9.568
21.248,9.584
21.252,9.584
21.256,9.548
21.26,9.456
21.264,9.432
21.268,9.432
21.272,9.292
21.276,9.14
21.28,9.084
21.284,8.996
21.288,8.888
21.292,8.748
21.296,8.676
21.3,8.62
21.304,8.52
21.308,8.4
21.312,8.352
21.316,8.308
21.32,8.32
21.324,8.208
21.328,8.152
21.332,8.156
21.336,8.184
21.34,8.108
21.344,8.06
21.348,8.08
21.352,8.128
21.356,8.056
21.36,8.004
21.364,8.008
21.368,8.084
21.372,8.068
21.376,8.004
21.38,8.004
21.384,8.052
21.388,8.052
21.392,8.016
21.396,8.032
21.4,8.084
21.404,8.076
21.408,8.04
21.412,8.048
21.416,8.056
21.42,8.116
21.424,8.044
21.428,8.048
21.432,8.084
21.436,8.112
21.44,8.056
21.444,8.012
21.448,8.084
21.452,8.116
21.456,8.08
21.46,8.012
21.464,8.076
21.468,8.092
21.472,8.06
21.476,8.02
21.48,8.032
21.484,8.08
21.488,8.048
21.492,8
21.496,8.024
21.5,8.068
21.504,8.064
21.508,8.02
21.512,7.976
21.516,8.02
21.52,8.028
21.524,7.988
21.528,7.964
21.532,8.024
21.536,8.036
21.54,8
21.544,7.956
21.548,7.988
21.552,8.024
21.556,7.976
21.56,7.952
21.564,7.992
21.568,8.04
21.572,8.02
21.576,7.96
21.58,7.96
21.584,8.032
21.588,7.984
21.592,7.972
21.596,7.96
21.6,8.004
21.604,7.996
21.608,7.984
21.612,7.94
21.616,7.988
21.62,8.012
21.624,7.98
21.628,7.924
21.632,7.968
21.636,8.04
21.64,7.944
21.644,7.924
21.648,7.956
21.652,8.032
21.656,7.964
21.66,7.932
21.664,7.984
21.668,8.016
21.672,7.98
21.676,7.944
21.68,7.968
21.684,7.968
21.688,7.992
21.692,7.952
21.696,7.968
21.7,8.008
21.704,8.028
21.708,7.96
21.712,7.952
21.716,7.96
21.72,8.02
21.724,7.972
21.728,7.932
21.732,7.976
21.736,8.036
21.74,7.992
21.744,7.936
21.748,7.996
21.752,8.008
21.756,7.988
21.76,7.928
21.764,7.972
21.768,8.044
21.772,7.992
21.776,7.956
21.78,7.964
21.784,8.016
21.788,7.992
21.792,7.908
21.796,7.956
21.8,7.996
21.804,8.012
21.808,7.94
21.812,7.932
21.816,7.992
21.82,8.02
21.824,7.964
21.828,7.96
21.832,7.988
21.836,8.032
21.84,7.964
21.844,7.948
21.848,7.972
21.852,8.052
21.856,8.004
21.86,7.924
21.864,7.96
21.868,8
21.872,7.972
21.876,7.94
21.88,7.944
21.884,8
21.888,7.988
21.892,7.996
21.896,7.956
21.9,8
21.904,8
21.908,7.948
21.912,7.948
21.916,7.968
21.92,8.016
21.924,7.964
21.928,7.932
21.932,7.992
21.936,8.036
21.94,7.976
21.944,7.948
21.948,7.988
21.952,8.04
21.956,7.984
21.96,7.928
21.964,7.992
21.968,8.024
21.972,8.016
21.976,7.98
21.98,7.984
21.984,8.024
21.988,8.008
21.992,7.984
21.996,7.992
22,8.044
22.004,8.04
22.008,7.968
22.012,7.968
22.016,8.024
22.02,8.028
22.024,8.008
22.028,7.964
22.032,8.028
22.036,8.056
22.04,7.988
22.044,7.956
22.048,7.988
22.052,8.016
22.056,8.004
22.06,7.976
22.064,8.024
22.068,8.076
22.072,8.06
22.076,8.012
22.08,8.048
22.084,8.12
22.088,8.088
22.092,8.04
22.096,8.076
22.1,8.148
22.104,8.192
22.108,8.16
22.112,8.208
22.116,8.22
22.12,8.188
22.124,8.124
22.128,8.072
22.132,8.088
22.136,8.116
22.14,8.068
22.144,7.988
22.148,8.04
22.152,8.096
22.156,8.08
22.16,8.004
22.164,8.012
22.168,8.048
22.172,7.984
22.176,7.932
22.18,7.984
22.184,8.02
22.188,7.984
22.192,7.94
22.196,7.984
22.2,8.012
22.204,8.016
22.208,7.98
22.212,7.956
22.216,7.984
22.22,7.988
22.224,7.892
22.228,7.892
22.232,8.012
22.236,8.276
22.24,8.668
22.244,9.12
22.248,9.772
22.252,10.52
22.256,10.736
22.26,9.96
22.264,9.116
22.268,8.62
22.272,8.084
22.276,7.704
22.28,7.46
22.284,7.444
22.288,7.44
22.292,7.404
22.296,7.424
22.3,7.58
22.304,7.672
22.308,7.736
22.312,7.8
22.316,7.952
22.32,8.068
22.324,8.064
22.328,8.044
22.332,8.096
22.336,8.144
22.34,8.12
22.344,8.096
22.348,8.132
22.352,8.196
22.356,8.172
22.36,8.152
22.364,8.196
22.368,8.252
22.372,8.224
22.376,8.168
22.38,8.208
22.384,8.24
22.388,8.244
22.392,8.228
22.396,8.284
22.4,8.264
22.404,8.3
22.408,8.272
22.412,8.276
22.416,8.312
22.42,8.34
22.424,8.316
22.428,8.288
22.432,8.344
22.436,8.428
22.44,8.408
22.444,8.36
22.448,8.416
22.452,8.464
22.456,8.476
22.46,8.44
22.464,8.512
22.468,8.58
22.472,8.544
22.476,8.552
22.48,8.584
22.484,8.676
22.488,8.7
22.492,8.704
22.496,8.736
22.5,8.824
22.504,8.864
22.508,8.896
22.512,8.928
22.516,9.032
22.52,9.12
22.524,9.124
22.528,9.172
22.532,9.236
22.536,9.368
22.54,9.348
22.544,9.348
22.548,9.432
22.552,9.536
22.556,9.528
22.56,9.508
22.564,9.56
22.568,9.632
22.572,9.556
22.576,9.492
22.58,9.456
22.584,9.412
22.588,9.364
22.592,9.252
22.596,9.172
22.6,9.112
22.604,9.008
22.608,8.864
22.612,8.748
22.616,8.696
22.62,8.636
22.624,8.504
22.628,8.4
22.632,8.412
22.636,8.392
22.64,8.276
22.644,8.192
22.648,8.208
22.652,8.192
22.656,8.12
22.66,8.068
22.664,8.116
22.668,8.136
22.672,8.084
22.676,8.036
22.68,8.032
22.684,8.06
22.688,8.072
22.692,8.016
22.696,8.008
22.7,8.072
22.704,8.096
22.708,8
22.712,8.028
22.716,8.052
22.72,8.08
22.724,8.064
22.728,8.012
22.732,8.072
22.736,8.084
22.74,8.04
22.744,8.032
22.748,8.068
22.752,8.088
22.756,8.052
22.76,8.028
22.764,8.048
22.768,8.068
22.772,8.068
22.776,8.032
22.78,8.008
22.784,8.056
22.788,8.08
22.792,8.02
22.796,8.024
22.8,8.06
22.804,8.068
22.808,8.012
22.812,7.984
22.816,8.024
22.82,8.048
22.824,8.008
22.828,7.988
22.832,8.036
22.836,8.016
22.84,7.972
22.844,7.96
22.848,7.976
22.852,8.024
22.856,7.996
22.86,7.956
22.864,7.968
22.868,8.02
22.872,7.992
22.876,7.932
22.88,7.936
22.884,7.996
22.888,8.004
22.892,7.936
22.896,7.916
22.9,7.992
22.904,8.004
22.908,7.944
22.912,7.936
22.916,7.96
22.92,7.984
22.924,7.956
22.928,7.92
22.932,7.956
22.936,7.992
22.94,7.94
22.944,7.94
22.948,7.924
22.952,7.984
22.956,7.964
22.96,7.928
22.964,7.928
22.968,8
22.972,7.952
22.976,7.904
22.98,7.952
22.984,7.988
22.988,7.98
22.992,7.936
22.996,7.936
23,7.98
23.004,7.996
23.008,7.944
23.012,7.908
23.016,7.936
23.02,7.98
23.024,7.932
23.028,7.932
23.032,7.956
23.036,8.012
23.04,7.94
23.044,7.908
23.048,7.936
23.052,7.964
23.056,7.964
23.06,7.924
23.064,7.944
23.068,7.948
23.072,7.96
23.076,7.928
23.08,7.956
23.084,7.98
23.088,7.96
23.092,7.948
23.096,7.92
23.1,7.988
23.104,7.98
23.108,7.952
23.112,7.924
23.116,7.944
23.12,8.004
23.124,7.932
23.128,7.904
23.132,7.964
23.136,8.012
23.14,7.968
23.144,7.92
23.148,7.928
23.152,7.992
23.156,7.968
23.16,7.956
23.164,7.944
23.168,8.004
23.172,7.984
23.176,7.928
23.18,7.936
23.184,7.992
23.188,7.972
23.192,7.94
23.196,7.94
23.2,7.964
23.204,7.988
23.208,7.956
23.212,7.916
23.216,7.92
23.22,8.012
23.224,7.956
23.228,7.928
23.232,7.98
23.236,7.976
23.24,7.96
23.244,7.932
23.248,7.952
23.252,7.956
23.256,7.98
23.26,7.928
23.264,7.944
23.268,7.964
23.272,7.976
23.276,7.928
23.28,7.912
23.284,7.996
23.288,7.992
23.292,7.956
23.296,7.924
23.3,7.984
23.304,7.984
23.308,7.92
23.312,7.956
23.316,7.976
23.32,8
23.324,7.956
23.328,7.908
23.332,7.948
23.336,8.016
23.34,7.952
23.344,7.904
23.348,7.936
23.352,7.996
23.356,7.988
23.36,7.928
23.364,7.928
23.368,7.968
23.372,7.952
23.376,7.936
23.38,7.916
23.384,7.988
23.388,7.976
23.392,7.92
23.396,7.948
23.4,7.976
23.404,8.008
23.408,7.932
23.412,7.92
23.416,7.988
23.42,8.004
23.424,7.956
23.428,7.916
23.432,7.944
23.436,8
23.44,7.976
23.444,7.928
23.448,8.004
23.452,8.044
23.456,8.008
23.46,7.988
23.464,8.028
23.468,8.072
23.472,8.1
23.476,8.068
23.48,8.108
23.484,8.184
23.488,8.224
23.492,8.144
23.496,8.068
23.5,8.048
23.504,8.092
23.508,8.008
23.512,7.972
23.516,8.02
23.52,8.044
23.524,8
23.528,7.956
23.532,8
23.536,7.964
23.54,7.932
23.544,7.908
23.548,7.908
23.552,7.948
23.556,7.944
23.56,7.896
23.564,7.936
23.568,7.964
23.572,7.96
23.576,7.908
23.58,7.92
23.584,7.972
23.588,7.948
23.592,7.908
23.596,7.92
23.6,7.86
23.604,7.904
23.608,8.004
23.612,8.224
23.616,8.776
23.62,9.336
23.624,9.936
23.628,10.536
23.632,10.516
23.636,9.68
23.64,8.892
23.644,8.34
23.648,7.908
23.652,7.612
23.656,7.42
23.66,7.34
23.664,7.384
23.668,7.364
23.672,7.432
23.676,7.508
23.68,7.604
23.684,7.708
23.688,7.836
23.692,7.9
23.696,7.964
23.7,8.028
23.704,8.032
23.708,8.012
23.712,8.032
23.716,8.064
23.72,8.088
23.724,8.08
23.728,8.096
23.732,8.12
23.736,8.156
23.74,8.168
23.744,8.12
23.748,8.132
23.752,8.188
23.756,8.18
23.76,8.18
23.764,8.168
23.768,8.22
23.772,8.232
23.776,8.196
23.78,8.176
23.784,8.244
23.788,8.26
23.792,8.24
23.796,8.232
23.8,8.316
23.804,8.328
23.808,8.316
23.812,8.308
23.816,8.348
23.82,8.384
23.824,8.372
23.828,8.336
23.832,8.404
23.836,8.428
23.84,8.444
23.844,8.428
23.848,8.472
23.852,8.568
23.856,8.58
23.86,8.56
23.864,8.6
23.868,8.688
23.872,8.732
23.876,8.744
23.88,8.78
23.884,8.876
23.888,8.956
23.892,8.972
23.896,9.004
23.9,9.1
23.904,9.168
23.908,9.204
23.912,9.22
23.916,9.308
23.92,9.412
23.924,9.412
23.928,9.428
23.932,9.488
23.936,9.54
23.94,9.5
23.944,9.472
23.948,9.508
23.952,9.516
23.956,9.444
23.96,9.352
23.964,9.288
23.968,9.216
23.972,9.136
23.976,8.984
23.98,8.888
23.984,8.84
23.988,8.74
23.992,8.6
23.996,8.516
24,8.472
24.004,8.428
24.008,8.308
24.012,8.236
24.016,8.236
24.02,8.224
24.024,8.164
24.028,8.1
24.032,8.116
24.036,8.12
24.04,8.06
24.044,8.008
24.048,8.032
24.052,8.064
24.056,8.036
24.06,7.996
24.064,8.008
24.068,8.04
24.072,8.016
24.076,8.04
24.08,8.012
24.084,8.068
24.088,8.064
24.092,8.028
24.096,7.988
24.1,8.032
24.104,8.04
24.108,8.048
24.112,7.988
24.116,8.016
24.12,8.096
24.124,8.044
24.128,8.024
24.132,8.024
24.136,8.076
24.14,8.028
24.144,8.016
24.148,8.056
24.152,8.088
24.156,8.056
24.16,8.012
24.164,8.016
24.168,8.048
24.172,8.048
24.176,8.016
24.18,7.996
24.184,8.028
24.188,8.06
24.192,8
24.196,7.98
24.2,8.012
24.204,8.024
24.208,7.98
24.212,7.932
24.216,7.988
24.22,8.048
24.224,7.98
24.228,7.956
24.232,7.972
24.236,8.004
24.24,7.98
24.244,7.924
24.248,7.94
24.252,7.98
24.256,7.972
24.26,7.916
24.264,7.956
24.268,7.988
24.272,7.976
24.276,7.936
24.28,7.968
24.284,7.968
24.288,7.988
24.292,7.952
24.296,7.9
24.3,7.948
24.304,7.992
24.308,7.96
24.312,7.928
24.316,7.956
24.32,8.008
24.324,7.952
24.328,7.904
24.332,7.952
24.336,8
24.34,7.964
24.344,7.892
24.348,7.948
24.352,7.98
24.356,7.956
24.36,7.92
24.364,7.924
24.368,7.96
24.372,7.952
24.376,7.884
24.38,7.924
24.384,7.964
24.388,7.936
24.392,7.912
24.396,7.896
24.4,7.924
24.404,7.988
24.408,7.936
24.412,7.908
24.416,7.96
24.42,7.964
24.424,7.936
24.428,7.892
24.432,7.908
24.436,7.96
24.44,7.916
24.444,7.876
24.448,7.928
24.452,7.956
24.456,7.932
24.46,7.912
24.464,7.928
24.468,7.956
24.472,7.952
24.476,7.872
24.48,7.908
24.484,7.936
24.488,7.98
24.492,7.92
24.496,7.908
24.5,7.932
24.504,7.972
24.508,7.908
24.512,7.88
24.516,7.956
24.52,7.976
24.524,7.92
24.528,7.876
24.532,7.904
24.536,7.968
24.54,7.924
24.544,7.9
24.548,7.936
24.552,7.992
24.556,7.952
24.56,7.904
24.564,7.9
24.568,7.956
24.572,7.932
24.576,7.904
24.58,7.912
24.584,7.956
24.588,7.944
24.592,7.9
24.596,7.9
24.6,7.932
24.604,7.944
24.608,7.916
24.612,7.88
24.616,7.928
24.62,7.968
24.624,7.936
24.628,7.912
24.632,7.912
24.636,7.952
24.64,7.916
24.644,7.88
24.648,7.936
24.652,7.968
24.656,7.928
24.66,7.92
24.664,7.924
24.668,7.964
24.672,7.948
24.676,7.92
24.68,7.912
24.684,7.952
24.688,8.008
24.692,7.92
24.696,7.912
24.7,7.94
24.704,7.98
24.708,7.94
24.712,7.892
24.716,7.94
24.72,7.98
24.724,7.924
24.728,7.912
24.732,7.94
24.736,8.012
24.74,7.98
24.744,7.948
24.748,7.968
24.752,8.028
24.756,8.02
24.76,7.948
24.764,7.996
24.768,8.088
24.772,8.1
24.776,8.084
24.78,8.124
24.784,8.212
24.788,8.212
24.792,8.124
24.796,8.052
24.8,8.068
24.804,8.068
24.808,8.02
24.812,7.964
24.816,8.004
24.82,8.036
24.824,8.004
24.828,7.944
24.832,7.932
24.836,7.944
24.84,7.896
24.844,7.876
24.848,7.928
24.852,7.96
24.856,7.94
24.86,7.9
24.864,7.908
24.868,7.96
24.872,7.96
24.876,7.908
24.88,7.9
24.884,7.948
24.888,7.964
24.892,7.92
24.896,7.84
24.9,7.852
24.904,7.932
24.908,8.076
24.912,8.46
24.916,8.964
24.92,9.572
24.924,10.284
24.928,10.688
24.932,10.144
24.936,9.268
24.94,8.628
24.944,8.104
24.948,7.74
24.952,7.516
24.956,7.384
24.96,7.324
24.964,7.32
24.968,7.384
24.972,7.468
24.976,7.548
24.98,7.644
24.984,7.784
24.988,7.88
24.992,7.94
24.996,7.956
25,8.048
25.004,8.072
25.008,8.052
25.012,8.044
25.016,8.104
25.02,8.156
25.024,8.144
25.028,8.112
25.032,8.14
25.036,8.188
25.04,8.192
25.044,8.136
25.048,8.188
25.052,8.232
25.056,8.188
25.06,8.168
25.064,8.2
25.068,8.272
25.072,8.26
25.076,8.216
25.08,8.188
25.084,8.284
25.088,8.292
25.092,8.28
25.096,8.248
25.1,8.316
25.104,8.372
25.108,8.328
25.112,8.324
25.116,8.38
25.12,8.424
25.124,8.404
25.128,8.376
25.132,8.456
25.136,8.516
25.14,8.52
25.144,8.496
25.148,8.516
25.152,8.624
25.156,8.628
25.16,8.628
25.164,8.672
25.168,8.772
25.172,8.808
25.176,8.808
25.18,8.852
25.184,8.94
25.188,9.024
25.192,9.044
25.196,9.092
25.2,9.188
25.204,9.268
25.208,9.268
25.212,9.276
25.216,9.38
25.22,9.476
25.224,9.48
25.228,9.468
25.232,9.524
25.236,9.58
25.24,9.556
25.244,9.508
25.248,9.52
25.252,9.516
25.256,9.46
25.26,9.304
25.264,9.244
25.268,9.168
25.272,9.1
25.276,8.956
25.28,8.848
25.284,8.784
25.288,8.728
25.292,8.584
25.296,8.472
25.3,8.432
25.304,8.4
25.308,8.288
25.312,8.212
25.316,8.224
25.32,8.252
25.324,8.164
25.328,8.092
25.332,8.084
25.336,8.14
25.34,8.084
25.344,8.012
25.348,8.068
25.352,8.084
25.356,8.064
25.36,8.024
25.364,8.024
25.368,8.052
25.372,8.068
25.376,8.028
25.38,8
25.384,8.08
25.388,8.096
25.392,8.052
25.396,8.016
25.4,8.064
25.404,8.092
25.408,8.044
25.412,8.028
25.416,8.044
25.42,8.108
25.424,8.088
25.428,8.02
25.432,8.04
25.436,8.104
25.44,8.1
25.444,8.008
25.448,8.068
25.452,8.104
25.456,8.08
25.46,8.008
25.464,8.04
25.468,8.072
25.472,8.072
25.476,8.004
25.48,8.04
25.484,8.064
25.488,8.064
25.492,8.012
25.496,7.984
25.5,8.008
25.504,8.068
25.508,7.996
25.512,7.968
25.516,8.024
25.52,8.064
25.524,8.024
25.528,7.972
25.532,7.996
25.536,8.036
25.54,8.016
25.544,7.952
25.548,7.992
25.552,8.036
25.556,8.032
25.56,7.972
25.564,7.972
25.568,8.02
25.572,7.988
25.576,7.98
25.58,7.956
25.584,8.012
25.588,8.056
25.592,7.992
25.596,7.944
25.6,7.972
25.604,8.02
25.608,7.98
25.612,7.952
25.616,7.98
25.62,8.028
25.624,7.996
25.628,7.96
25.632,7.972
25.636,8.008
25.64,7.976
25.644,7.956
25.648,7.972
25.652,8.02
25.656,8.012
25.66,7.984
25.664,7.976
25.668,8.004
25.672,7.988
25.676,7.968
25.68,7.988
25.684,8.004
25.688,8.02
25.692,7.984
25.696,7.964
25.7,7.992
25.704,8.028
25.708,8
25.712,7.964
25.716,7.984
25.72,8.04
25.724,8
25.728,7.96
25.732,7.968
25.736,8.028
25.74,8.008
25.744,7.944
25.748,8
25.752,8.028
25.756,8.024
25.76,7.968
25.764,7.992
25.768,8.004
25.772,8.008
25.776,7.988
25.78,7.972
25.784,8.028
25.788,8.036
25.792,8.008
25.796,7.972
25.8,8.004
25.804,8.06
25.808,8.008
25.812,7.956
25.816,8.04
25.82,8.056
25.824,8.008
25.828,7.964
25.832,7.988
25.836,8.072
25.84,8.008
25.844,7.96
25.848,7.992
25.852,8.052
25.856,8.032
25.86,7.956
25.864,8.004
25.868,8.012
25.872,8.044
25.876,8.012
25.88,7.98
25.884,8.028
25.888,8.032
25.892,8
25.896,7.976
25.9,8.016
25.904,8.032
25.908,8.016
25.912,7.964
25.916,8.028
25.92,8.08
25.924,8.028
25.928,7.984
25.932,8.012
25.936,8.064
25.94,8.028
25.944,7.992
25.948,8.004
25.952,8.06
25.956,8.032
25.96,7.964
25.964,8
25.968,8.02
25.972,8.052
25.976,7.996
25.98,8.02
25.984,8.056
25.988,8.044
25.992,8
25.996,7.988
26,8.044
26.004,8.064
26.008,8.008
26.012,7.992
26.016,8.012
26.02,8.064
26.024,8.048
26.028,8
26.032,8.028
26.036,8.052
26.04,8.036
26.044,7.988
26.048,8.016
26.052,8.052
26.056,8.048
26.06,7.996
26.064,8
26.068,8.052
26.072,8.056
26.076,8.02
26.08,8
26.084,8.052
26.088,8.092
26.092,8.044
26.096,8.052
26.1,8.056
26.104,8.108
26.108,8.092
26.112,8.052
26.116,8.1
26.12,8.172
26.124,8.148
26.128,8.132
26.132,8.212
26.136,8.312
26.14,8.236
26.144,8.152
26.148,8.132
26.152,8.188
26.156,8.14
26.16,8.056
26.164,8.064
26.168,8.108
26.172,8.104
26.176,8.1
26.18,8.052
26.184,8.036
26.188,8.076
26.192,8.008
26.196,7.92
26.2,7.988
26.204,8.036
26.208,8.028
26.212,7.968
26.216,8.016
26.22,8.076
26.224,8.024
26.228,7.988
26.232,8.012
26.236,8.068
26.24,7.992
26.244,7.956
26.248,7.944
26.252,7.992
26.256,8.064
26.26,8.22
26.264,8.664
26.268,9.208
26.272,9.828
26.276,10.472
26.28,10.712
26.284,10.004
26.288,9.136
26.292,8.576
26.296,8.072
26.3,7.764
26.304,7.544
26.308,7.448
26.312,7.404
26.316,7.42
26.32,7.496
26.324,7.608
26.328,7.636
26.332,7.756
26.336,7.88
26.34,7.956
26.344,8
26.348,8.076
26.352,8.14
26.356,8.136
26.36,8.096
26.364,8.12
26.368,8.16
26.372,8.2
26.376,8.168
26.38,8.16
26.384,8.192
26.388,8.232
26.392,8.204
26.396,8.176
26.4,8.224
26.404,8.264
26.408,8.252
26.412,8.224
26.416,8.292
26.42,8.292
26.424,8.304
26.428,8.28
26.432,8.308
26.436,8.36
26.44,8.336
26.444,8.328
26.448,8.348
26.452,8.372
26.456,8.396
26.46,8.368
26.464,8.38
26.468,8.444
26.472,8.484
26.476,8.42
26.48,8.444
26.484,8.516
26.488,8.564
26.492,8.568
26.496,8.568
26.5,8.644
26.504,8.68
26.508,8.696
26.512,8.704
26.516,8.736
26.52,8.84
26.524,8.828
26.528,8.812
26.532,8.9
26.536,8.976
26.54,9.056
26.544,9.1
26.548,9.128
26.552,9.24
26.556,9.308
26.56,9.296
26.564,9.356
26.568,9.464
26.572,9.512
26.576,9.504
26.58,9.536
26.584,9.612
26.588,9.66
26.592,9.596
26.596,9.548
26.6,9.564
26.604,9.576
26.608,9.488
26.612,9.348
26.616,9.32
26.62,9.264
26.624,9.14
26.628,8.988
26.632,8.924
26.636,8.88
26.64,8.744
26.644,8.596
26.648,8.54
26.652,8.536
26.656,8.46
26.66,8.34
26.664,8.316
26.668,8.284
26.672,8.272
26.676,8.208
26.68,8.148
26.684,8.188
26.688,8.192
26.692,8.116
26.696,8.068
26.7,8.096
26.704,8.16
26.708,8.132
26.712,8.088
26.716,8.1
26.72,8.116
26.724,8.1
26.728,8.064
26.732,8.072
26.736,8.136
26.74,8.136
26.744,8.104
26.748,8.104
26.752,8.144
26.756,8.136
26.76,8.1
26.764,8.108
26.768,8.136
26.772,8.16
26.776,8.124
26.78,8.096
26.784,8.136
26.788,8.2
26.792,8.116
26.796,8.088
26.8,8.12
26.804,8.164
26.808,8.156
26.812,8.112
26.816,8.132
26.82,8.152
26.824,8.112
26.828,8.096
26.832,8.104
26.836,8.148
26.84,8.112
26.844,8.08
26.848,8.136
26.852,8.12
26.856,8.096
26.86,8.072
26.864,8.072
26.868,8.08
26.872,8.096
26.876,8.088
26.88,8.068
26.884,8.092
26.888,8.108
26.892,8.052
26.896,8.008
26.9,8.056
26.904,8.076
26.908,8.04
26.912,8
26.916,8.06
26.92,8.092
26.924,8.032
26.928,8.016
26.932,8.016
26.936,8.072
26.94,8.048
26.944,7.992
26.948,8.04
26.952,8.088
26.956,8.052
26.96,8.004
26.964,8
26.968,8.06
26.972,8.068
26.976,8.028
26.98,8.004
26.984,8.036
26.988,8.068
26.992,8.016
26.996,7.992
27,8.004
27.004,8.048
27.008,8.032
27.012,7.98
27.016,8.012
27.02,8.076
27.024,8.016
27.028,7.988
27.032,8
27.036,8.052
27.04,8.036
27.044,8.008
27.048,8.012
27.052,8.028
27.056,8.064
27.06,7.972
27.064,8.016
27.068,8.044
27.072,8.028
27.076,8.004
27.08,7.98
27.084,8.02
27.088,8.072
27.092,8.02
27.096,7.992
27.1,8.02
27.104,8.076
27.108,8.052
27.112,8
27.116,8.004
27.12,8.028
27.124,8.02
27.128,7.984
27.132,8.024
27.136,8.028
27.14,8.048
27.144,8.044
27.148,8.016
27.152,8.088
27.156,8.068
27.16,8.008
27.164,8.008
27.168,8.024
27.172,8.068
27.176,8.044
27.18,8.008
27.184,8.036
27.188,8.08
27.192,8.036
27.196,7.996
27.2,8.016
27.204,8.076
27.208,8.068
27.212,7.996
27.216,8.04
27.22,8.092
27.224,8.052
27.228,8
27.232,8.02
27.236,8.084
27.24,8.036
27.244,8.008
27.248,8.024
27.252,8.06
27.256,8.088
27.26,8.004
27.264,8.028
27.268,8.072
27.272,8.084
27.276,8.048
27.28,8.02
27.284,8.076
27.288,8.072
27.292,8.02
27.296,7.988
27.3,8.028
27.304,8.088
27.308,8.044
27.312,8.024
27.316,8.032
27.32,8.112
27.324,8.052
27.328,8.04
27.332,8.048
27.336,8.076
27.34,8.076
27.344,8.052
27.348,8.06
27.352,8.1
27.356,8.088
27.36,8.004
27.364,8
27.368,8.056
27.372,8.088
27.376,8.06
27.38,8.044
27.384,8.08
27.388,8.116
27.392,8.068
27.396,8.016
27.4,8.08
27.404,8.144
27.408,8.128
27.412,8.064
27.416,8.076
27.42,8.144
27.424,8.144
27.428,8.112
27.432,8.14
27.436,8.22
27.44,8.252
27.444,8.24
27.448,8.236
27.452,8.312
27.456,8.244
27.46,8.172
27.464,8.156
27.468,8.172
27.472,8.152
27.476,8.128
27.48,8.088
27.484,8.144
27.488,8.152
27.492,8.104
27.496,8.02
27.5,8.048
27.504,8.064
27.508,8.032
27.512,8.004
27.516,8.028
27.52,8.068
27.524,8.004
27.528,8
27.532,8.044
27.536,8.084
27.54,8.072
27.544,8.06
27.548,8.048
27.552,8.068
27.556,8.048
27.56,7.952
27.564,7.936
27.568,8.028
27.572,8.28
27.576,8.616
27.58,9.072
27.584,9.704
27.588,10.512
27.592,10.852
27.596,10.172
27.6,9.268
27.604,8.736
27.608,8.216
27.612,7.756
27.616,7.572
27.62,7.5
27.624,7.48
27.628,7.412
27.632,7.428
27.636,7.584
27.64,7.664
27.644,7.764
27.648,7.832
27.652,7.98
27.656,8.084
27.66,8.096
27.664,8.124
27.668,8.184
27.672,8.216
27.676,8.152
27.68,8.16
27.684,8.236
27.688,8.276
27.692,8.232
27.696,8.176
27.7,8.24
27.704,8.316
27.708,8.28
27.712,8.268
27.716,8.272
27.72,8.344
27.724,8.316
27.728,8.284
27.732,8.284
27.736,8.364
27.74,8.384
27.744,8.332
27.748,8.36
27.752,8.408
27.756,8.416
27.76,8.392
27.764,8.416
27.768,8.436
27.772,8.456
27.776,8.472
27.78,8.464
27.784,8.504
27.788,8.548
27.792,8.512
27.796,8.496
27.8,8.556
27.804,8.66
27.808,8.62
27.812,8.624
27.816,8.688
27.82,8.76
27.824,8.776
27.828,8.78
27.832,8.816
27.836,8.924
27.84,8.948
27.844,8.952
27.848,9.024
27.852,9.128
27.856,9.188
27.86,9.196
27.864,9.224
27.868,9.34
27.872,9.408
27.876,9.452
27.88,9.436
27.884,9.556
27.888,9.624
27.892,9.62
27.896,9.588
27.9,9.656
27.904,9.7
27.908,9.656
27.912,9.58
27.916,9.568
27.92,9.536
27.924,9.452
27.928,9.324
27.932,9.26
27.936,9.184
27.94,9.076
27.944,8.948
27.948,8.852
27.952,8.784
27.956,8.68
27.96,8.58
27.964,8.48
27.968,8.456
27.972,8.44
27.976,8.352
27.98,8.272
27.984,8.284
27.988,8.264
27.992,8.208
27.996,8.124
28,8.164
28.004,8.216
28.008,8.156
28.012,8.128
28.016,8.132
28.02,8.176
28.024,8.152
28.028,8.112
28.032,8.108
28.036,8.192
28.04,8.188
28.044,8.112
28.048,8.132
28.052,8.156
28.056,8.18
28.06,8.108
28.064,8.112
28.068,8.144
28.072,8.184
28.076,8.14
28.08,8.096
28.084,8.144
28.088,8.2
28.092,8.144
28.096,8.124
28.1,8.16
28.104,8.176
28.108,8.144
28.112,8.104
28.116,8.144
28.12,8.176
28.124,8.132
28.128,8.088
28.132,8.132
28.136,8.156
28.14,8.132
28.144,8.104
28.148,8.1
28.152,8.144
28.156,8.108
28.16,8.084
28.164,8.08
28.168,8.104
28.172,8.144
28.176,8.096
28.18,8.032
28.184,8.068
28.188,8.144
28.192,8.06
28.196,8.056
28.2,8.076
28.204,8.088
28.208,8.1
28.212,8.064
28.216,8.04
28.22,8.1
28.224,8.064
28.228,8.036
28.232,8.028
28.236,8.096
28.24,8.092
28.244,8.04
28.248,8.044
28.252,8.064
28.256,8.06
28.26,8.04
28.264,8.024
28.268,8.06
28.272,8.072
28.276,8.044
28.28,8.02
28.284,8.028
28.288,8.1
28.292,8.04
28.296,8.016
28.3,8.048
28.304,8.08
28.308,8.064
28.312,7.98
28.316,8.044
28.32,8.072
28.324,8.064
28.328,7.996
28.332,8.048
28.336,8.08
28.34,8.068
28.344,8.008
28.348,8.028
28.352,8.048
28.356,8.076
28.36,8.016
28.364,7.98
28.368,8.06
28.372,8.084
28.376,8.048
28.38,8.008
28.384,8.028
28.388,8.072
28.392,8.036
28.396,8.016
28.4,8.052
28.404,8.072
28.408,8.096
28.412,8.024
28.416,8.04
28.42,8.06
28.424,8.06
28.428,7.992
28.432,8.044
28.436,8.108
28.44,8.044
28.444,8.028
28.448,8.028
28.452,8.048
28.456,8.072
28.46,8.012
28.464,8.016
28.468,8.024
28.472,8.072
28.476,8.044
28.48,8.012
28.484,8.036
28.488,8.084
28.492,8.028
28.496,7.972
28.5,8.028
28.504,8.104
28.508,8.044
28.512,7.992
28.516,8.032
28.52,8.096
28.524,8.048
28.528,8
28.532,8.024
28.536,8.092
28.54,8.076
28.544,8.008
28.548,8.004
28.552,8.064
28.556,8.068
28.56,8.028
28.564,8.004
28.568,8.064
28.572,8.104
28.576,8.036
28.58,8.024
28.584,8.04
28.588,8.084
28.592,8.072
28.596,8.02
28.6,8.076
28.604,8.096
28.608,8.104
28.612,8.016
28.616,8.032
28.62,8.088
28.624,8.056
28.628,8.048
28.632,8.052
28.636,8.092
28.64,8.116
28.644,8.048
28.648,8.048
28.652,8.124
28.656,8.136
28.66,8.112
28.664,8.096
28.668,8.156
28.672,8.232
28.676,8.204
28.68,8.2
28.684,8.256
28.688,8.316
28.692,8.22
28.696,8.116
28.7,8.14
28.704,8.192
28.708,8.128
28.712,8.06
28.716,8.092
28.72,8.168
28.724,8.132
28.728,8.08
28.732,8.056
28.736,8.096
28.74,8.068
28.744,8.032
28.748,7.98
28.752,8.02
28.756,8.052
28.76,8.032
28.764,8.012
28.768,8.068
28.772,8.096
28.776,8.04
28.78,8.028
28.784,8.044
28.788,8.068
28.792,8.02
28.796,7.972
28.8,7.956
28.804,8.096
28.808,8.276
28.812,8.636
28.816,9.18
28.82,9.8
28.824,10.452
28.828,10.788
28.832,10.168
28.836,9.316
28.84,8.752
28.844,8.176
28.848,7.792
28.852,7.568
28.856,7.488
28.86,7.464
28.864,7.444
28.868,7.508
28.872,7.624
28.876,7.704
28.88,7.76
28.884,7.884
28.888,8.028
28.892,8.08
28.896,8.084
28.9,8.124
28.904,8.208
28.908,8.192
28.912,8.148
28.916,8.188
28.92,8.26
28.924,8.248
28.928,8.208
28.932,8.252
28.936,8.28
28.94,8.288
28.944,8.252
28.948,8.26
28.952,8.308
28.956,8.332
28.96,8.308
28.964,8.292
28.968,8.344
28.972,8.376
28.976,8.364
28.98,8.312
28.984,8.36
28.988,8.416
28.992,8.4
28.996,8.38
29,8.412
29.004,8.46
29.008,8.452
29.012,8.412
29.016,8.464
29.02,8.508
29.024,8.52
29.028,8.496
29.032,8.508
29.036,8.58
29.04,8.612
29.044,8.604
29.048,8.6
29.052,8.676
29.056,8.776
29.06,8.724
29.064,8.732
29.068,8.824
29.072,8.936
29.076,8.928
29.08,8.96
29.084,9.056
29.088,9.14
29.092,9.14
29.096,9.204
29.1,9.276
29.104,9.384
29.108,9.42
29.112,9.444
29.116,9.516
29.12,9.584
29.124,9.608
29.128,9.584
29.132,9.636
29.136,9.7
29.14,9.66
29.144,9.628
29.148,9.564
29.152,9.56
29.156,9.504
29.16,9.356
29.164,9.296
29.168,9.208
29.172,9.168
29.176,9.016
29.18,8.864
29.184,8.804
29.188,8.732
29.192,8.64
29.196,8.484
29.2,8.476
29.204,8.472
29.208,8.348
29.212,8.276
29.216,8.252
29.22,8.26
29.224,8.212
29.228,8.168
29.232,8.156
29.236,8.18
29.24,8.16
29.244,8.112
29.248,8.072
29.252,8.128
29.256,8.14
29.26,8.084
29.264,8.068
29.268,8.116
29.272,8.132
29.276,8.096
29.28,8.048
29.284,8.092
29.288,8.148
29.292,8.12
29.296,8.088
29.3,8.108
29.304,8.176
29.308,8.148
29.312,8.104
29.316,8.116
29.32,8.172
29.324,8.124
29.328,8.12
29.332,8.124
29.336,8.152
29.34,8.18
29.344,8.096
29.348,8.112
29.352,8.128
29.356,8.148
29.36,8.088
29.364,8.076
29.368,8.112
29.372,8.172
29.376,8.116
29.38,8.052
29.384,8.092
29.388,8.14
29.392,8.088
29.396,8.052
29.4,8.092
29.404,8.112
29.408,8.084
29.412,8.032
29.416,8.052
29.42,8.104
29.424,8.096
29.428,8.044
29.432,8.04
29.436,8.08
29.44,8.08
29.444,8.02
29.448,8.036
29.452,8.048
29.456,8.092
29.46,8.048
29.464,8.004
29.468,8.04
29.472,8.088
29.476,8.02
29.48,7.968
29.484,8.032
29.488,8.048
29.492,8.016
29.496,7.964
29.5,8.04
29.504,8.088
29.508,8.04
29.512,8.004
29.516,8.016
29.52,8.044
29.524,8.024
29.528,7.988
29.532,8.004
29.536,8.068
29.54,8.028
29.544,8.008
29.548,7.976
29.552,8.032
29.556,8.068
29.56,7.992
29.564,7.952
29.568,8.004
29.572,8.036
29.576,7.98
29.58,7.96
29.584,7.98
29.588,8.052
29.592,7.996
29.596,7.968
29.6,8.004
29.604,8.032
29.608,8.004
29.612,7.964
29.616,7.972
29.62,8.048
29.624,8.004
29.628,7.956
29.632,7.996
29.636,8.008
29.64,7.984
29.644,7.976
29.648,7.964
29.652,7.992
29.656,8.04
29.66,7.992
29.664,7.984
29.668,8.012
29.672,8.052
29.676,7.984
29.68,7.972
29.684,8.02
29.688,8.048
29.692,8.004
29.696,7.976
29.7,8.02
29.704,8.04
29.708,8.004
29.712,7.988
29.716,8.008
29.72,8.028
29.724,8.048
29.728,7.984
29.732,8.004
29.736,8.028
29.74,8.036
29.744,7.992
29.748,7.988
29.752,8.004
29.756,8.04
29.76,7.988
29.764,7.984
29.768,8.012
29.772,8.06
29.776,8.004
29.78,7.972
29.784,8.004
29.788,8.024
29.792,7.988
29.796,8.004
29.8,8.052
29.804,8.084
29.808,8.06
29.812,8.02
29.816,8.064
29.82,8.12
29.824,8.136
29.828,8.108
29.832,8.176
29.836,8.22
29.84,8.26
29.844,8.192
29.848,8.14
29.852,8.152
29.856,8.152
29.86,8.068
29.864,8.008
29.868,8.036
29.872,8.092
29.876,8.048
29.88,8.016
29.884,8.032
29.888,8.028
29.892,7.98
29.896,7.924
29.9,7.936
29.904,8.004
29.908,7.968
29.912,7.932
29.916,7.964
29.92,7.984
29.924,8.008
29.928,7.932
29.932,7.96
29.936,8.032
29.94,8.016
29.944,7.936
29.948,7.904
29.952,7.924
29.956,7.936
29.96,7.98
29.964,8.204
29.968,8.688
29.972,9.236
29.976,9.872
29.98,10.556
29.984,10.744
29.988,10.02
29.992,9.048
29.996,8.464
30,7.988
30.004,7.676
30.008,7.444
30.012,7.32
30.016,7.372
30.02,7.42
30.024,7.42
30.028,7.464
30.032,7.588
30.036,7.76
30.04,7.804
30.044,7.896
30.048,7.976
30.052,8.068
30.056,8.14
30.06,8.108
30.064,8.096
30.068,8.172
30.072,8.18
30.076,8.152
30.08,8.112
30.084,8.192
30.088,8.232
30.092,8.18
30.096,8.2
30.1,8.2
30.104,8.264
30.108,8.248
30.112,8.204
30.116,8.24
30.12,8.292
30.124,8.3
30.128,8.256
30.132,8.272
30.136,8.324
30.14,8.344
30.144,8.292
30.148,8.32
30.152,8.344
30.156,8.412
30.16,8.372
30.164,8.36
30.168,8.4
30.172,8.464
30.176,8.436
30.18,8.42
30.184,8.48
30.188,8.48
30.192,8.532
30.196,8.5
30.2,8.572
30.204,8.644
30.208,8.684
30.212,8.64
30.216,8.736
30.22,8.804
30.224,8.848
30.228,8.88
30.232,8.932
30.236,9.02
30.24,9.092
30.244,9.116
30.248,9.144
30.252,9.272
30.256,9.344
30.26,9.356
30.264,9.392
30.268,9.52
30.272,9.6
30.276,9.576
30.28,9.584
30.284,9.668
30.288,9.732
30.292,9.696
30.296,9.64
30.3,9.648
30.304,9.624
30.308,9.504
30.312,9.412
30.316,9.332
30.32,9.26
30.324,9.144
30.328,9.028
30.332,8.896
30.336,8.82
30.34,8.736
30.344,8.608
30.348,8.468
30.352,8.436
30.356,8.416
30.36,8.304
30.364,8.244
30.368,8.216
30.372,8.224
30.376,8.148
30.38,8.076
30.384,8.08
30.388,8.108
30.392,8.052
30.396,8.02
30.4,8.044
30.404,8.036
30.408,8.048
30.412,7.976
30.416,7.996
30.42,8.056
30.424,8.048
30.428,7.98
30.432,8.02
30.436,8.044
30.44,8.052
30.444,8.02
30.448,8.032
30.452,8.064
30.456,8.092
30.46,8.044
30.464,8.012
30.468,8.064
30.472,8.12
30.476,8.056
30.48,8.012
30.484,8.068
30.488,8.108
30.492,8.056
30.496,8.02
30.5,8.08
30.504,8.088
30.508,8.052
30.512,8.024
30.516,8.02
30.52,8.072
30.524,8.068
30.528,8.02
30.532,8.024
30.536,8.036
30.54,8.06
30.544,8.02
30.548,7.988
30.552,8.032
30.556,8.06
30.56,8.008
30.564,7.992
30.568,8.036
30.572,8.044
30.576,8.012
30.58,7.944
30.584,7.956
30.588,8.04
30.592,7.996
30.596,7.96
30.6,7.98
30.604,8.02
30.608,7.992
30.612,7.944
30.616,7.96
30.62,7.988
30.624,7.996
30.628,7.968
30.632,7.948
30.636,7.968
30.64,8.024
30.644,7.956
30.648,7.932
30.652,7.972
30.656,8.004
30.66,7.916
30.664,7.924
30.668,7.956
30.672,8.028
30.676,7.98
30.68,7.944
30.684,7.948
30.688,8.024
30.692,7.964
30.696,7.924
30.7,7.948
30.704,8.004
30.708,7.996
30.712,7.928
30.716,7.932
30.72,7.988
30.724,7.992
30.728,7.92
30.732,7.952
30.736,8
30.74,8
30.744,7.956
30.748,7.94
30.752,7.976
30.756,7.992
30.76,7.992
30.764,7.924
30.768,7.972
30.772,8.004
30.776,7.972
30.78,7.924
30.784,7.952
30.788,8.008
30.792,7.996
30.796,7.944
30.8,7.98
30.804,8
30.808,7.98
30.812,7.932
30.816,7.968
30.82,8.004
30.824,8.004
30.828,7.976
30.832,7.944
30.836,7.968
30.84,8.008
30.844,7.956
30.848,7.952
30.852,7.992
30.856,8.004
30.86,7.996
30.864,7.956
30.868,7.996
30.872,8.012
30.876,7.968
30.88,7.932
30.884,7.96
30.888,8.036
30.892,8.044
30.896,7.984
30.9,8.02
30.904,8.064
30.908,8.06
30.912,7.996
30.916,8.02
30.92,8.116
30.924,8.16
30.928,8.128
30.932,8.172
30.936,8.216
30.94,8.172
30.944,8.088
30.948,8.024
30.952,8.072
30.956,8.1
30.96,8.036
30.964,7.976
30.968,8.048
30.972,8.08
30.976,8.048
30.98,7.98
30.984,7.964
30.988,8.004
30.992,7.984
30.996,7.916
31,7.96
31.004,7.996
31.008,7.968
31.012,7.944
31.016,7.936
31.02,7.984
31.024,8
31.028,7.948
31.032,7.964
31.036,8.016
31.04,7.984
31.044,7.912
31.048,7.876
31.052,7.948
31.056,8.092
31.06,8.372
31.064,8.852
31.068,9.424
31.072,10.128
31.076,10.728
31.08,10.568
31.084,9.696
31.088,8.924
31.092,8.364
31.096,7.832
31.1,7.528
31.104,7.412
31.108,7.356
31.112,7.38
31.116,7.368
31.12,7.492
31.124,7.584
31.128,7.652
31.132,7.764
31.136,7.868
31.14,7.992
31.144,8.024
31.148,8.02
31.152,8.096
31.156,8.148
31.16,8.108
31.164,8.116
31.168,8.168
31.172,8.204
31.176,8.168
31.18,8.156
31.184,8.192
31.188,8.244
31.192,8.256
31.196,8.204
31.2,8.196
31.204,8.28
31.208,8.276
31.212,8.232
31.216,8.244
31.22,8.3
31.224,8.304
31.228,8.304
31.232,8.264
31.236,8.328
31.24,8.38
31.244,8.352
31.248,8.32
31.252,8.38
31.256,8.436
31.26,8.404
31.264,8.376
31.268,8.436
31.272,8.484
31.276,8.476
31.28,8.452
31.284,8.528
31.288,8.6
31.292,8.58
31.296,8.608
31.3,8.632
31.304,8.692
31.308,8.712
31.312,8.712
31.316,8.788
31.32,8.864
31.324,8.924
31.328,8.94
31.332,8.996
31.336,9.116
31.34,9.192
31.344,9.18
31.348,9.248
31.352,9.372
31.356,9.44
31.36,9.448
31.364,9.48
31.368,9.568
31.372,9.652
31.376,9.644
31.38,9.64
31.384,9.676
31.388,9.708
31.392,9.664
31.396,9.584
31.4,9.556
31.404,9.524
31.408,9.428
31.412,9.256
31.416,9.18
31.42,9.096
31.424,8.992
31.428,8.84
31.432,8.724
31.436,8.68
31.44,8.604
31.444,8.488
31.448,8.412
31.452,8.404
31.456,8.336
31.46,8.288
31.464,8.18
31.468,8.188
31.472,8.216
31.476,8.152
31.48,8.088
31.484,8.124
31.488,8.148
31.492,8.092
31.496,8.064
31.5,8.064
31.504,8.088
31.508,8.072
31.512,8.04
31.516,8.032
31.52,8.064
31.524,8.064
31.528,8.028
31.532,8.008
31.536,8.072
31.54,8.104
31.544,8.08
31.548,8.004
31.552,8.076
31.556,8.136
31.56,8.056
31.564,8.048
31.568,8.08
31.572,8.124
31.576,8.092
31.58,8.048
31.584,8.092
31.588,8.156
31.592,8.112
31.596,8.08
31.6,8.112
31.604,8.144
31.608,8.092
31.612,8.072
31.616,8.08
31.62,8.112
31.624,8.136
31.628,8.084
31.632,8.076
31.636,8.112
31.64,8.14
31.644,8.06
31.648,8.032
31.652,8.048
31.656,8.124
31.66,8.06
31.664,8.036
31.668,8.04
31.672,8.108
31.676,8.072
31.68,8.02
31.684,8.06
31.688,8.088
31.692,8.052
31.696,8.024
31.7,8.044
31.704,8.08
31.708,8.048
31.712,8.02
31.716,8.016
31.72,8.052
31.724,8.064
31.728,8.012
31.732,8.008
31.736,8.06
31.74,8.06
31.744,8.048
31.748,7.996
31.752,8.024
31.756,8.072
31.76,8.004
31.764,7.972
31.768,8.052
31.772,8.06
31.776,8.048
31.78,7.988
31.784,8.02
31.788,8.064
31.792,8.04
31.796,8.012
31.8,8.008
31.804,8.056
31.808,8.036
31.812,8
31.816,7.988
31.82,8.024
31.824,8.048
31.828,8.024
31.832,7.992
31.836,8.044
31.84,8.052
31.844,8.008
31.848,7.988
31.852,8.036
31.856,8.056
31.86,8.036
31.864,7.976
31.868,8.012
31.872,8.048
31.876,8.02
31.88,8.016
31.884,7.98
31.888,8.056
31.892,8.016
31.896,8.008
31.9,8.028
31.904,8.044
31.908,8.032
31.912,8.008
31.916,8.044
31.92,8.036
31.924,8.04
31.928,8.048
31.932,8.032
31.936,7.988
31.94,8.052
31.944,8.048
31.948,8.02
31.952,8.016
31.956,8.072
31.96,8.048
31.964,7.992
31.968,8.02
31.972,8.076
31.976,8.036
31.98,7.992
31.984,8.032
31.988,8.068
31.992,8.052
31.996,8.012
32,8.048
32.004,8.032
32.008,8.056
32.012,7.984
32.016,8.044
32.02,8.044
32.024,8.056
32.028,8.024
32.032,8.032
32.036,8.04
32.04,8.072
32.044,8.02
32.048,8.02
32.052,8.044
32.056,8.092
32.06,8.056
32.064,8.02
32.068,8.028
32.072,8.076
32.076,8.072
32.08,7.992
32.084,8.06
32.088,8.072
32.092,8.036
32.096,8.004
32.1,8.064
32.104,8.064
32.108,8.076
32.112,8.012
32.116,8.072
32.12,8.064
32.124,8.08
32.128,8.044
32.132,8.064
32.136,8.024
32.14,8.096
32.144,8.06
32.148,8.044
32.152,8.044
32.156,8.084
32.16,8.056
32.164,8.024
32.168,8.052
32.172,8.076
32.176,8.052
32.18,8.04
32.184,8.084
32.188,8.076
32.192,8.076
32.196,8.052
32.2,8.08
32.204,8.064
32.208,8.084
32.212,8.048
32.216,8.092
32.22,8.076
32.224,8.092
32.228,8.072
32.232,8.072
32.236,8.064
32.24,8.104
32.244,8.068
32.248,8.04
32.252,8.08
32.256,8.12
32.26,8.08
32.264,8.036
32.268,8.076
32.272,8.088
32.276,8.068
32.28,8.028
32.284,8.068
32.288,8.096
32.292,8.1
32.296,8.048
32.3,8.076
32.304,8.08
32.308,8.108
32.312,8.064
32.316,8.104
32.32,8.1
32.324,8.108
32.328,8.068
32.332,8.06
32.336,8.092
32.34,8.128
32.344,8.08
32.348,8.06
32.352,8.072
32.356,8.12
32.36,8.072
32.364,8.036
32.368,8.076
32.372,8.124
32.376,8.072
32.38,8.024
32.384,8.084
32.388,8.108
32.392,8.088
32.396,8.048
32.4,8.092
32.404,8.104
32.408,8.096
32.412,8.056
32.416,8.096
32.42,8.084
32.424,8.112
32.428,8.08
32.432,8.064
32.436,8.056
32.44,8.096
32.444,8.056
32.448,8.048
32.452,8.104
32.456,8.108
32.46,8.092
32.464,8.064
32.468,8.06
32.472,8.1
32.476,8.104
32.48,8.056
32.484,8.088
32.488,8.108
32.492,8.132
32.496,8.116
32.5,8.152
32.504,8.144
32.508,8.18
32.512,8.136
32.516,8.192
32.52,8.176
32.524,8.228
32.528,8.24
32.532,8.26
32.536,8.276
32.54,8.304
32.544,8.248
32.548,8.196
32.552,8.2
32.556,8.18
32.56,8.14
32.564,8.096
32.568,8.112
32.572,8.172
32.576,8.14
32.58,8.116
32.584,8.132
32.588,8.104
32.592,8.056
32.596,8.044
32.6,8.044
32.604,8.044
32.608,8.048
32.612,8.036
32.616,8.044
32.62,8.072
32.624,8.076
32.628,8.04
32.632,8.056
32.636,8.068
32.64,8.072
32.644,8.004
32.648,7.948
32.652,8
32.656,8.144
32.66,8.34
32.664,8.764
32.668,9.324
32.672,9.908
32.676,10.588
32.68,10.704
32.684,9.976
32.688,9.148
32.692,8.572
32.696,8.044
32.7,7.752
32.704,7.516
32.708,7.464
32.712,7.464
32.716,7.484
32.72,7.54
32.724,7.7
32.728,7.744
32.732,7.828
32.736,7.924
32.74,8.076
32.744,8.104
32.748,8.08
32.752,8.156
32.756,8.196
32.76,8.164
32.764,8.152
32.768,8.212
32.772,8.228
32.776,8.244
32.78,8.196
32.784,8.28
32.788,8.288
32.792,8.276
32.796,8.244
32.8,8.272
32.804,8.3
32.808,8.312
32.812,8.296
32.816,8.32
32.82,8.336
32.824,8.364
32.828,8.32
32.832,8.332
32.836,8.32
32.84,8.368
32.844,8.404
32.848,8.356
32.852,8.42
32.856,8.468
32.86,8.452
32.864,8.424
32.868,8.484
32.872,8.5
32.876,8.516
32.88,8.496
32.884,8.572
32.888,8.596
32.892,8.584
32.896,8.588
32.9,8.664
32.904,8.68
32.908,8.732
32.912,8.728
32.916,8.792
32.92,8.856
32.924,8.896
32.928,8.94
32.932,8.972
32.936,9.028
32.94,9.14
32.944,9.14
32.948,9.16
32.952,9.3
32.956,9.388
32.96,9.424
32.964,9.424
32.968,9.532
32.972,9.584
32.976,9.628
32.98,9.604
32.984,9.68
32.988,9.696
32.992,9.66
32.996,9.624
33,9.628
33.004,9.588
33.008,9.524
33.012,9.42
33.016,9.34
33.02,9.248
33.024,9.176
33.028,9.044
33.032,8.896
33.036,8.832
33.04,8.796
33.044,8.668
33.048,8.548
33.052,8.516
33.056,8.488
33.06,8.404
33.064,8.292
33.068,8.292
33.072,8.292
33.076,8.228
33.08,8.216
33.084,8.212
33.088,8.208
33.092,8.188
33.096,8.136
33.1,8.176
33.104,8.168
33.108,8.136
33.112,8.096
33.116,8.116
33.12,8.136
33.124,8.18
33.128,8.124
33.132,8.064
33.136,8.112
33.14,8.148
33.144,8.12
33.148,8.076
33.152,8.14
33.156,8.184
33.16,8.156
33.164,8.096
33.168,8.128
33.172,8.164
33.176,8.144
33.18,8.112
33.184,8.152
33.188,8.176
33.192,8.144
33.196,8.128
33.2,8.152
33.204,8.168
33.208,8.192
33.212,8.124
33.216,8.136
33.22,8.144
33.224,8.184
33.228,8.104
33.232,8.08
33.236,8.148
33.24,8.164
33.244,8.124
33.248,8.088
33.252,8.128
33.256,8.164
33.26,8.144
33.264,8.064
33.268,8.076
33.272,8.124
33.276,8.108
33.28,8.072
33.284,8.096
33.288,8.112
33.292,8.112
33.296,8.056
33.3,8.052
33.304,8.104
33.308,8.088
33.312,8.06
33.316,8.06
33.32,8.112
33.324,8.1
33.328,8.044
33.332,8.028
33.336,8.06
33.34,8.048
33.344,8.044
33.348,8.028
33.352,8.08
33.356,8.084
33.36,8.068
33.364,8.008
33.368,8.04
33.372,8.072
33.376,8.06
33.38,8.02
33.384,8.056
33.388,8.104
33.392,8.076
33.396,8.032
33.4,8.004
33.404,8.088
33.408,8.088
33.412,8.02
33.416,8.012
33.42,8.06
33.424,8.056
33.428,8.032
33.432,8.016
33.436,8.044
33.44,8.072
33.444,8.052
33.448,8.012
33.452,8.016
33.456,8.068
33.46,8.048
33.464,8.02
33.468,8.044
33.472,8.06
33.476,8.076
33.48,8.016
33.484,8.048
33.488,8.076
33.492,8.068
33.496,8.012
33.5,8.02
33.504,8.056
33.508,8.064
33.512,8.008
33.516,8.04
33.52,8.072
33.524,8.048
33.528,8.192
33.532,8.02
33.536,8.092
33.54,8.1
33.544,8.068
33.548,8.02
33.552,8.076
33.556,8.084
33.56,8.04
33.564,8.012
33.568,8.036
33.572,8.076
33.576,8.088
33.58,8.012
33.584,8.056
33.588,8.1
33.592,8.072
33.596,8.028
33.6,8.056
33.604,8.088
33.608,8.056
33.612,8.028
33.616,8.032
33.62,8.092
33.624,8.068
33.628,8.056
33.632,8.04
33.636,8.064
33.64,8.064
33.644,8.052
33.648,8.008
33.652,8.064
33.656,8.104
33.66,8.064
33.664,8.004
33.668,8.036
33.672,8.08
33.676,8.068
33.68,8.028
33.684,8.052
33.688,8.096
33.692,8.068
33.696,8.036
33.7,8.044
33.704,8.06
33.708,8.064
33.712,8.036
33.716,8.048
33.72,8.088
33.724,8.108
33.728,8.052
33.732,8.02
33.736,8.044
33.74,8.084
33.744,8.052
33.748,8.02
33.752,8.076
33.756,8.08
33.76,8.06
33.764,8
33.768,8.06
33.772,8.056
33.776,8.044
33.78,8.012
33.784,8.048
33.788,8.076
33.792,8.052
33.796,8.024
33.8,8.032
33.804,8.056
33.808,8.064
33.812,8.024
33.816,8.04
33.82,8.084
33.824,8.092
33.828,8.056
33.832,8.024
33.836,8.048
33.84,8.056
33.844,8.028
33.848,7.996
33.852,8.076
33.856,8.104
33.86,8.084
33.864,8.008
33.868,8.048
33.872,8.112
33.876,8.076
33.88,8.048
33.884,8.096
33.888,8.172
33.892,8.196
33.896,8.176
33.9,8.196
33.904,8.288
33.908,8.276
33.912,8.192
33.916,8.112
33.92,8.152
33.924,8.156
33.928,8.092
33.932,8.04
33.936,8.1
33.94,8.152
33.944,8.092
33.948,8.032
33.952,8.056
33.956,8.06
33.96,8.004
33.964,7.964
33.968,8
33.972,8.028
33.976,8.028
33.98,8.024
33.984,8.052
33.988,8.064
33.992,8.068
33.996,8.012
34,8.028
34.004,8.064
34.008,8.044
34.012,7.96
34.016,7.92
34.02,7.972
34.024,8.064
34.028,8.236
34.032,8.648
34.036,9.224
34.04,9.888
34.044,10.592
34.048,10.812
34.052,10.176
34.056,9.232
34.06,8.576
34.064,7.984
34.068,7.696
34.072,7.488
34.076,7.432
34.08,7.42
34.084,7.416
34.088,7.468
34.092,7.556
34.096,7.652
34.1,7.76
34.104,7.896
34.108,7.976
34.112,8.016
34.116,8.028
34.12,8.136
34.124,8.152
34.128,8.14
34.132,8.092
34.136,8.188
34.14,8.232
34.144,8.212
34.148,8.172
34.152,8.204
34.156,8.244
34.16,8.212
34.164,8.22
34.168,8.256
34.172,8.308
34.176,8.292
34.18,8.228
34.184,8.292
34.188,8.328
34.192,8.332
34.196,8.284
34.2,8.312
34.204,8.364
34.208,8.352
34.212,8.372
34.216,8.356
34.22,8.428
34.224,8.424
34.228,8.42
34.232,8.384
34.236,8.468
34.24,8.488
34.244,8.496
34.248,8.464
34.252,8.532
34.256,8.612
34.26,8.592
34.264,8.548
34.268,8.636
34.272,8.676
34.276,8.688
34.28,8.7
34.284,8.784
34.288,8.864
34.292,8.904
34.296,8.884
34.3,8.98
34.304,9.092
34.308,9.128
34.312,9.156
34.316,9.2
34.32,9.336
34.324,9.38
34.328,9.408
34.332,9.428
34.336,9.556
34.34,9.64
34.344,9.616
34.348,9.62
34.352,9.708
34.356,9.724
34.36,9.68
34.364,9.596
34.368,9.616
34.372,9.584
34.376,9.484
34.38,9.356
34.384,9.324
34.388,9.244
34.392,9.116
34.396,8.96
34.4,8.86
34.404,8.824
34.408,8.692
34.412,8.596
34.416,8.484
34.42,8.468
34.424,8.408
34.428,8.344
34.432,8.244
34.436,8.28
34.44,8.228
34.444,8.192
34.448,8.116
34.452,8.16
34.456,8.172
34.46,8.116
34.464,8.08
34.468,8.12
34.472,8.116
34.476,8.116
34.48,8.076
34.484,8.112
34.488,8.152
34.492,8.1
34.496,8.044
34.5,8.064
34.504,8.104
34.508,8.108
34.512,8.076
34.516,8.092
34.52,8.132
34.524,8.116
34.528,8.132
34.532,8.068
34.536,8.128
34.54,8.156
34.544,8.112
34.548,8.076
34.552,8.156
34.556,8.16
34.56,8.112
34.564,8.084
34.568,8.136
34.572,8.156
34.576,8.14
34.58,8.108
34.584,8.128
34.588,8.164
34.592,8.128
34.596,8.096
34.6,8.096
34.604,8.136
34.608,8.12
34.612,8.08
34.616,8.048
34.62,8.104
34.624,8.092
34.628,8.06
34.632,8.012
34.636,8.1
34.64,8.108
34.644,8.06
34.648,8.032
34.652,8.088
34.656,8.092
34.66,8.052
34.664,8.032
34.668,8.068
34.672,8.116
34.676,8.056
34.68,8.024
34.684,8.056
34.688,8.088
34.692,8.044
34.696,8.024
34.7,8.02
34.704,8.08
34.708,8.028
34.712,8.032
34.716,8.02
34.72,8.092
34.724,8.06
34.728,8.012
34.732,7.992
34.736,8.06
34.74,8.096
34.744,8.028
34.748,8
34.752,8.068
34.756,8.084
34.76,8.032
34.764,7.972
34.768,8.032
34.772,8.076
34.776,8.048
34.78,7.988
34.784,8.052
34.788,8.104
34.792,8.052
34.796,8.02
34.8,8.024
34.804,8.068
34.808,8.052
34.812,8.044
34.816,8
34.82,8.068
34.824,8.076
34.828,8.024
34.832,7.968
34.836,8.052
34.84,8.088
34.844,8.06
34.848,7.98
34.852,8.068
34.856,8.048
34.86,8.044
34.864,8.016
34.868,8.044
34.872,8.08
34.876,8.02
34.88,7.996
34.884,8.048
34.888,8.092
34.892,8.048
34.896,8.016
34.9,8.02
34.904,8.08
34.908,8.044
34.912,8.04
34.916,8.032
34.92,8.08
34.924,8.08
34.928,8.036
34.932,7.984
34.936,8.084
34.94,8.06
34.944,8.008
34.948,8.004
34.952,8.072
34.956,8.108
34.96,8.032
34.964,7.996
34.968,8.036
34.972,8.092
34.976,8.052
34.98,8.02
34.984,8.048
34.988,8.092
34.992,8.048
34.996,8.012
35,8.024
35.004,8.06
35.008,8.052
35.012,8.032
35.016,7.988
35.02,8.072
35.024,8.084
35.028,7.996
35.032,7.98
35.036,8.056
35.04,8.072
35.044,8.032
35.048,8.016
35.052,8.076
35.056,8.076
35.06,8.032
35.064,7.968
35.068,8.052
35.072,8.088
35.076,8.04
35.08,7.996
35.084,8.04
35.088,8.072
35.092,8.028
35.096,8.028
35.1,8.004
35.104,8.06
35.108,8.056
35.112,8.032
35.116,8.008
35.12,8.08
35.124,8.056
35.128,8.032
35.132,7.976
35.136,8.076
35.14,8.12
35.144,8.088
35.148,8.056
35.152,8.104
35.156,8.128
35.16,8.108
35.164,8.096
35.168,8.16
35.172,8.224
35.176,8.216
35.18,8.204
35.184,8.24
35.188,8.308
35.192,8.204
35.196,8.136
35.2,8.112
35.204,8.164
35.208,8.132
35.212,8.072
35.216,8.04
35.22,8.124
35.224,8.124
35.228,8.072
35.232,8.012
35.236,8.028
35.24,8.044
35.244,7.996
35.248,7.948
35.252,8.024
35.256,8.064
35.26,8.024
35.264,7.992
35.268,8.028
35.272,8.076
35.276,8.032
35.28,8.016
35.284,8.024
35.288,8.072
35.292,7.996
35.296,7.94
35.3,7.936
35.304,8.036
35.308,8.224
35.312,8.592
35.316,9.096
35.32,9.716
35.324,10.38
35.328,10.836
35.332,10.26
35.336,9.444
35.34,8.784
35.344,8.16
35.348,7.748
35.352,7.532
35.356,7.444
35.36,7.424
35.364,7.384
35.368,7.464
35.372,7.62
35.376,7.676
35.38,7.728
35.384,7.848
35.388,8.008
35.392,8.064
35.396,8.06
35.4,8.08
35.404,8.156
35.408,8.124
35.412,8.156
35.416,8.096
35.42,8.212
35.424,8.252
35.428,8.176
35.432,8.136
35.436,8.232
35.44,8.268
35.444,8.256
35.448,8.216
35.452,8.264
35.456,8.3
35.46,8.236
35.464,8.236
35.468,8.288
35.472,8.336
35.476,8.312
35.48,8.316
35.484,8.3
35.488,8.376
35.492,8.344
35.496,8.328
35.5,8.316
35.504,8.424
35.508,8.404
35.512,8.4
35.516,8.396
35.52,8.432
35.524,8.46
35.528,8.464
35.532,8.472
35.536,8.54
35.54,8.596
35.544,8.58
35.548,8.556
35.552,8.644
35.556,8.708
35.56,8.7
35.564,8.7
35.568,8.76
35.572,8.88
35.576,8.888
35.58,8.912
35.584,8.988
35.588,9.104
35.592,9.1
35.596,9.164
35.6,9.216
35.604,9.328
35.608,9.376
35.612,9.404
35.616,9.444
35.62,9.58
35.624,9.628
35.628,9.62
35.632,9.576
35.636,9.68
35.64,9.704
35.644,9.624
35.648,9.572
35.652,9.572
35.656,9.54
35.66,9.396
35.664,9.276
35.668,9.208
35.672,9.156
35.676,8.996
35.68,8.876
35.684,8.772
35.688,8.736
35.692,8.62
35.696,8.5
35.7,8.396
35.704,8.396
35.708,8.352
35.712,8.272
35.716,8.192
35.72,8.248
35.724,8.216
35.728,8.128
35.732,8.056
35.736,8.116
35.74,8.132
35.744,8.072
35.748,8.024
35.752,8.056
35.756,8.096
35.76,8.056
35.764,8.016
35.768,8.036
35.772,8.092
35.776,8.036
35.78,8
35.784,8.016
35.788,8.068
35.792,8.04
35.796,8.032
35.8,8.016
35.804,8.08
35.808,8.064
35.812,8.028
35.816,8.012
35.82,8.084
35.824,8.088
35.828,8.048
35.832,8.02
35.836,8.056
35.84,8.112
35.844,8.068
35.848,8.032
35.852,8.056
35.856,8.124
35.86,8.068
35.864,8.028
35.868,8.04
35.872,8.124
35.876,8.084
35.88,8.024
35.884,8.024
35.888,8.096
35.892,8.064
35.896,8.048
35.9,7.988
35.904,8.084
35.908,8.092
35.912,8.048
35.916,8.012
35.92,8.064
35.924,8.092
35.928,8.016
35.932,7.996
35.936,8.028
35.94,8.096
35.944,8.004
35.948,8.012
35.952,7.996
35.956,8.036
35.96,7.984
35.964,7.964
35.968,7.964
35.972,8.048
35.976,8.02
35.98,7.984
35.984,7.972
35.988,8.064
35.992,8.024
35.996,7.988
36,7.96
36.004,8.008
36.008,8.02
36.012,7.996
36.016,7.968
36.02,8.016
36.024,8.044
36.028,7.984
36.032,7.944
36.036,7.996
36.04,8.06
36.044,7.968
36.048,7.952
36.052,7.996
36.056,8.072
36.06,7.984
36.064,7.948
36.068,7.968
36.072,8.044
36.076,7.988
36.08,7.976
36.084,7.952
36.088,8.032
36.092,8.016
36.096,7.98
36.1,7.952
36.104,8.032
36.108,8.024
36.112,7.984
36.116,7.972
36.12,8.024
36.124,8.056
36.128,7.992
36.132,7.924
36.136,8.008
36.14,8.04
36.144,7.988
36.148,7.976
36.152,7.984
36.156,8.036
36.16,7.956
36.164,7.972
36.168,7.96
36.172,8.056
36.176,7.96
36.18,7.972
36.184,7.96
36.188,8.008
36.192,8.004
36.196,7.984
36.2,7.96
36.204,8.028
36.208,8.032
36.212,7.972
36.216,7.976
36.22,8.028
36.224,8.012
36.228,7.972
36.232,7.948
36.236,7.984
36.24,8.04
36.244,7.972
36.248,7.984
36.252,7.976
36.256,8.036
36.26,7.976
36.264,7.964
36.268,7.964
36.272,8.06
36.276,8.024
36.28,7.98
36.284,7.98
36.288,8.016
36.292,8.004
36.296,7.984
36.3,7.972
36.304,8.012
36.308,8.032
36.312,7.984
36.316,7.964
36.32,7.996
36.324,8.044
36.328,7.984
36.332,7.94
36.336,7.992
36.34,8.072
36.344,7.984
36.348,7.956
36.352,8.004
36.356,8.064
36.36,7.964
36.364,7.964
36.368,7.972
36.372,8.052
36.376,7.984
36.38,7.996
36.384,7.964
36.388,8.032
36.392,8.012
36.396,7.992
36.4,7.968
36.404,7.992
36.408,8.052
36.412,7.944
36.416,7.948
36.42,7.988
36.424,8.052
36.428,7.964
36.432,7.976
36.436,8.008
36.44,8.06
36.444,7.992
36.448,7.972
36.452,7.976
36.456,8.044
36.46,7.976
36.464,7.964
36.468,8.004
36.472,8.068
36.476,7.984
36.48,7.992
36.484,7.972
36.488,8.056
36.492,8.024
36.496,7.984
36.5,7.98
36.504,8.024
36.508,8.02
36.512,7.976
36.516,7.98
36.52,8.008
36.524,8.056
36.528,7.972
36.532,7.956
36.536,7.996
36.54,8.064
36.544,7.976
36.548,7.984
36.552,8.016
36.556,8.08
36.56,8
36.564,8.012
36.568,8.052
36.572,8.112
36.576,8.024
36.58,8.048
36.584,8.076
36.588,8.136
36.592,8.156
36.596,8.152
36.6,8.14
36.604,8.248
36.608,8.28
36.612,8.128
36.616,8.1
36.62,8.124
36.624,8.148
36.628,8.052
36.632,8.02
36.636,8.06
36.64,8.112
36.644,8.04
36.648,8.044
36.652,8.028
36.656,8.028
36.66,7.948
36.664,7.944
36.668,7.968
36.672,8.012
36.676,7.996
36.68,7.972
36.684,7.988
36.688,8.032
36.692,8.008
36.696,7.932
36.7,7.932
36.704,8.02
36.708,8.04
36.712,7.928
36.716,7.92
36.72,7.96
36.724,8.036
36.728,8.156
36.732,8.564
36.736,9.128
36.74,9.752
36.744,10.36
36.748,10.744
36.752,10.144
36.756,9.26
36.76,8.6
36.764,8.02
36.768,7.704
36.772,7.52
36.776,7.396
36.78,7.348
36.784,7.368
36.788,7.432
36.792,7.544
36.796,7.616
36.8,7.732
36.804,7.86
36.808,7.964
36.812,7.94
36.816,8.06
36.82,8.116
36.824,8.116
36.828,8.092
36.832,8.1
36.836,8.148
36.84,8.232
36.844,8.148
36.848,8.108
36.852,8.204
36.856,8.244
36.86,8.204
36.864,8.168
36.868,8.22
36.872,8.268
36.876,8.264
36.88,8.22
36.884,8.268
36.888,8.288
36.892,8.296
36.896,8.236
36.9,8.252
36.904,8.328
36.908,8.372
36.912,8.26
36.916,8.296
36.92,8.384
36.924,8.416
36.928,8.348
36.932,8.348
36.936,8.424
36.94,8.496
36.944,8.424
36.948,8.424
36.952,8.488
36.956,8.544
36.96,8.516
36.964,8.492
36.968,8.552
36.972,8.644
36.976,8.68
36.98,8.648
36.984,8.708
36.988,8.804
36.992,8.884
36.996,8.796
37,8.892
37.004,9.032
37.008,9.1
37.012,9.06
37.016,9.136
37.02,9.236
37.024,9.372
37.028,9.336
37.032,9.384
37.036,9.488
37.04,9.568
37.044,9.584
37.048,9.536
37.052,9.632
37.056,9.676
37.06,9.64
37.064,9.548
37.068,9.548
37.072,9.596
37.076,9.5
37.08,9.36
37.084,9.276
37.088,9.236
37.092,9.152
37.096,8.936
37.1,8.876
37.104,8.816
37.108,8.748
37.112,8.564
37.116,8.476
37.12,8.472
37.124,8.448
37.128,8.304
37.132,8.236
37.136,8.228
37.14,8.28
37.144,8.176
37.148,8.072
37.152,8.12
37.156,8.144
37.16,8.068
37.164,8.02
37.168,8.04
37.172,8.112
37.176,8.112
37.18,8.028
37.184,8.036
37.188,8.116
37.192,8.092
37.196,7.996
37.2,8.012
37.204,8.104
37.208,8.108
37.212,8.048
37.216,7.996
37.22,8.068
37.224,8.116
37.228,8.06
37.232,7.968
37.236,8.104
37.24,8.156
37.244,8.1
37.248,7.996
37.252,8.08
37.256,8.144
37.26,8.096
37.264,8.016
37.268,8.048
37.272,8.144
37.276,8.128
37.28,8.024
37.284,8.02
37.288,8.148
37.292,8.128
37.296,8.048
37.3,8.004
37.304,8.088
37.308,8.112
37.312,8.084
37.316,7.948
37.32,8.076
37.324,8.112
37.328,8.012
37.332,7.932
37.336,8.036
37.34,8.092
37.344,8.056
37.348,7.968
37.352,7.984
37.356,8.096
37.36,8.04
37.364,7.968
37.368,7.94
37.372,8.108
37.376,8.056
37.38,8.004
37.384,7.904
37.388,8.048
37.392,8.056
37.396,7.948
37.4,7.932
37.404,8.016
37.408,8.068
37.412,7.984
37.416,7.924
37.42,7.956
37.424,8.052
37.428,8
37.432,7.944
37.436,7.9
37.44,8.032
37.444,7.996
37.448,7.928
37.452,7.92
37.456,8.036
37.46,8.012
37.464,7.972
37.468,7.88
37.472,8.016
37.476,8.036
37.48,7.956
37.484,7.916
37.488,8.012
37.492,8.04
37.496,7.976
37.5,7.924
37.504,8.008
37.508,8.028
37.512,7.976
37.516,7.936
37.52,7.972
37.524,7.992
37.528,7.94
37.532,7.916
37.536,7.972
37.54,8.024
37.544,7.98
37.548,7.92
37.552,7.964
37.556,7.976
37.56,7.992
37.564,7.956
37.568,7.932
37.572,8
37.576,7.992
37.58,7.948
37.584,7.924
37.588,7.964
37.592,7.988
37.596,7.96
37.6,7.936
37.604,7.988
37.608,8.004
37.612,8
37.616,7.92
37.62,7.984
37.624,7.992
37.628,7.968
37.632,7.936
37.636,7.988
37.64,8.028
37.644,7.976
37.648,7.948
37.652,7.988
37.656,8.012
37.66,7.976
37.664,7.948
37.668,7.944
37.672,8.008
37.676,8.008
37.68,7.948
37.684,7.964
37.688,8.004
37.692,7.988
37.696,7.956
37.7,7.928
37.704,7.988
37.708,8.008
37.712,7.94
37.716,7.944
37.72,8
37.724,8.028
37.728,7.956
37.732,7.932
37.736,7.972
37.74,8.02
37.744,7.972
37.748,7.936
37.752,7.952
37.756,8.016
37.76,7.996
37.764,7.964
37.768,7.98
37.772,8.032
37.776,8.036
37.78,7.992
37.784,7.944
37.788,8.044
37.792,8.072
37.796,8.02
37.8,7.952
37.804,8.068
37.808,8.108
37.812,8.092
37.816,8.068
37.82,8.144
37.824,8.252
37.828,8.188
37.832,8.108
37.836,8.096
37.84,8.164
37.844,8.08
37.848,8.016
37.852,8.004
37.856,8.076
37.86,8.04
37.864,8.016
37.868,7.984
37.872,8.032
37.876,7.992
37.88,7.952
37.884,7.9
37.888,7.948
37.892,8
37.896,7.924
37.9,7.888
37.904,7.956
37.908,8
37.912,7.932
37.916,7.88
37.92,7.964
37.924,8.04
37.928,7.984
37.932,7.876
37.936,7.924
37.94,7.888
37.944,7.9
37.948,7.968
37.952,8.304
37.956,8.832
37.96,9.36
37.964,10.016
37.968,10.72
37.972,10.648
37.976,9.736
37.98,8.776
37.984,8.224
37.988,7.816
37.992,7.524
37.996,7.332
38,7.288
38.004,7.352
38.008,7.368
38.012,7.372
38.016,7.4
38.02,7.572
38.024,7.716
38.028,7.816
38.032,7.832
38.036,7.924
38.04,8.068
38.044,8.02
38.048,8.008
38.052,8.076
38.056,8.124
38.06,8.124
38.064,8.052
38.068,8.116
38.072,8.164
38.076,8.156
38.08,8.116
38.084,8.112
38.088,8.172
38.092,8.2
38.096,8.164
38.1,8.144
38.104,8.216
38.108,8.268
38.112,8.24
38.116,8.172
38.12,8.236
38.124,8.312
38.128,8.268
38.132,8.212
38.136,8.28
38.14,8.364
38.144,8.34
38.148,8.264
38.152,8.336
38.156,8.384
38.16,8.396
38.164,8.4
38.168,8.384
38.172,8.496
38.176,8.492
38.18,8.44
38.184,8.46
38.188,8.556
38.192,8.624
38.196,8.612
38.2,8.568
38.204,8.676
38.208,8.752
38.212,8.752
38.216,8.764
38.22,8.888
38.224,8.992
38.228,8.988
38.232,9.036
38.236,9.12
38.24,9.24
38.244,9.292
38.248,9.256
38.252,9.384
38.256,9.452
38.26,9.52
38.264,9.52
38.268,9.56
38.272,9.668
38.276,9.668
38.28,9.592
38.284,9.576
38.288,9.564
38.292,9.56
38.296,9.42
38.3,9.32
38.304,9.288
38.308,9.232
38.312,9.092
38.316,8.916
38.32,8.848
38.324,8.788
38.328,8.644
38.332,8.46
38.336,8.472
38.34,8.44
38.344,8.336
38.348,8.22
38.352,8.216
38.356,8.2
38.36,8.14
38.364,8.072
38.368,8.052
38.372,8.092
38.376,8.092
38.38,7.984
38.384,7.96
38.388,8.032
38.392,8.04
38.396,8.004
38.4,7.94
38.404,7.996
38.408,8.044
38.412,7.988
38.416,7.948
38.42,8.004
38.424,8.052
38.428,8.032
38.432,7.964
38.436,8.032
38.44,8.072
38.444,8.056
38.448,7.964
38.452,8.02
38.456,8.064
38.46,8.064
38.464,7.996
38.468,8.032
38.472,8.1
38.476,8.092
38.48,8.02
38.484,8.008
38.488,8.072
38.492,8.084
38.496,8.056
38.5,8.008
38.504,8.072
38.508,8.072
38.512,8.048
38.516,7.988
38.52,8.04
38.524,8.08
38.528,8.056
38.532,7.988
38.536,8.052
38.54,8.076
38.544,8.028
38.548,7.992
38.552,8
38.556,8.06
38.56,8.024
38.564,7.968
38.568,7.98
38.572,8.008
38.576,7.996
38.58,7.992
38.584,7.964
38.588,8.016
38.592,8.044
38.596,7.972
38.6,7.964
38.604,7.988
38.608,8.04
38.612,8.004
38.616,7.956
38.62,7.984
38.624,8.024
38.628,8.02
38.632,7.948
38.636,8.016
38.64,8.052
38.644,8.02
38.648,7.968
38.652,7.996
38.656,8.036
38.66,8.016
38.664,7.96
38.668,7.976
38.672,8.032
38.676,8.056
38.68,7.976
38.684,7.976
38.688,8.04
38.692,8.068
38.696,8.012
38.7,7.984
38.704,8.028
38.708,8.068
38.712,8.036
38.716,7.976
38.72,8.024
38.724,8.088
38.728,8.06
38.732,8.008
38.736,8.08
38.74,8.12
38.744,8.108
38.748,7.996
38.752,8.028
38.756,8.068
38.76,8.044
38.764,8.008
38.768,8
38.772,8.08
38.776,8.1
38.78,8.012
38.784,7.98
38.788,8.052
38.792,8.064
38.796,8.044
38.8,7.972
38.804,8.04
38.808,8.076
38.812,8.028
38.816,8.012
38.82,8.052
38.824,8.108
38.828,8.052
38.832,8.016
38.836,8.076
38.84,8.08
38.844,8.076
38.848,8.024
38.852,8.104
38.856,8.132
38.86,8.092
38.864,8.056
38.868,8.076
38.872,8.164
38.876,8.204
38.88,8.12
38.884,8.112
38.888,8.236
38.892,8.308
38.896,8.272
38.9,8.224
38.904,8.204
38.908,8.232
38.912,8.16
38.916,8.104
38.92,8.124
38.924,8.14
38.928,8.112
38.932,8.072
38.936,8.144
38.94,8.156
38.944,8.112
38.948,8.008
38.952,8.016
38.956,8.072
38.96,8.06
38.964,7.992
38.968,8.024
38.972,8.068
38.976,8.108
38.98,8.028
38.984,8.012
38.988,8.048
38.992,8.088
38.996,8.06
39,8.02
39.004,8.008
39.008,8.012
39.012,7.992
39.016,8.024
39.02,8.356
39.024,8.844
39.028,9.376
39.032,9.956
39.036,10.676
39.04,11.008
39.044,10.284
39.048,9.244
39.052,8.588
39.056,8.112
39.06,7.732
39.064,7.432
39.068,7.368
39.072,7.472
39.076,7.504
39.08,7.484
39.084,7.568
39.088,7.756
39.092,7.848
39.096,7.904
39.1,7.984
39.104,8.088
39.108,8.2
39.112,8.148
39.116,8.12
39.12,8.164
39.124,8.26
39.128,8.24
39.132,8.188
39.136,8.228
39.14,8.28
39.144,8.284
39.148,8.224
39.152,8.248
39.156,8.304
