0,7.952
0.004,7.936
0.008,7.964
0.012,7.992
0.016,7.964
0.02,7.908
0.024,7.936
0.028,8.008
0.032,8.016
0.036,7.964
0.04,7.964
0.044,7.988
0.048,7.976
0.052,7.94
0.056,7.924
0.06,7.96
0.064,7.988
0.068,7.936
0.072,7.9
0.076,7.98
0.08,8
0.084,7.96
0.088,7.96
0.092,7.988
0.096,7.968
0.1,7.952
0.104,7.928
0.108,7.952
0.112,8.044
0.116,8.012
0.12,8.004
0.124,8
0.128,8.032
0.132,8.064
0.136,8.084
0.14,8.156
0.144,8.244
0.148,8.212
0.152,8.176
0.156,8.12
0.16,8.196
0.164,8.208
0.168,8.164
0.172,8.164
0.176,8.136
0.18,8.104
0.184,8.032
0.188,7.996
0.192,8.036
0.196,8.092
0.2,8.092
0.204,7.956
0.208,7.932
0.212,7.976
0.216,7.964
0.22,7.916
0.224,7.92
0.228,7.92
0.232,7.952
0.236,7.92
0.24,7.924
0.244,7.98
0.248,7.992
0.252,7.952
0.256,7.904
0.26,7.964
0.264,7.952
0.268,7.932
0.272,7.912
0.276,7.968
0.28,7.996
0.284,7.992
0.288,7.984
0.292,8.02
0.296,8.028
0.3,8.02
0.304,7.996
0.308,8.012
0.312,8.06
0.316,7.996
0.32,7.948
0.324,7.944
0.328,7.908
0.332,7.804
0.336,7.756
0.34,7.86
0.344,8.36
0.348,9.4
0.352,10.796
0.356,12.216
0.36,13.464
0.364,13.568
0.368,12.06
0.372,9.792
0.376,8.3
0.38,7.92
0.384,7.84
0.388,7.832
0.392,7.872
0.396,8.076
0.4,8.228
0.404,8.184
0.408,8.168
0.412,8.2
0.416,8.164
0.42,8.076
0.424,8.068
0.428,8.108
0.432,8.128
0.436,8.12
0.44,8.148
0.444,8.168
0.448,8.14
0.452,8.128
0.456,8.108
0.46,8.18
0.464,8.196
0.468,8.152
0.472,8.14
0.476,8.192
0.48,8.256
0.484,8.228
0.488,8.184
0.492,8.236
0.496,8.256
0.5,8.248
0.504,8.204
0.508,8.272
0.512,8.272
0.516,8.3
0.52,8.264
0.524,8.284
0.528,8.38
0.532,8.4
0.536,8.348
0.54,8.316
0.544,8.4
0.548,8.452
0.552,8.428
0.556,8.452
0.56,8.492
0.564,8.54
0.568,8.54
0.572,8.556
0.576,8.616
0.58,8.684
0.584,8.68
0.588,8.716
0.592,8.832
0.596,8.888
0.6,8.876
0.604,8.952
0.608,9.008
0.612,9.152
0.616,9.184
0.62,9.24
0.624,9.276
0.628,9.348
0.632,9.38
0.636,9.316
0.64,9.288
0.644,9.308
0.648,9.22
0.652,9.132
0.656,8.964
0.66,8.872
0.664,8.788
0.668,8.672
0.672,8.552
0.676,8.46
0.68,8.42
0.684,8.344
0.688,8.256
0.692,8.256
0.696,8.252
0.7,8.164
0.704,8.112
0.708,8.068
0.712,8.104
0.716,8.056
0.72,8.048
0.724,8.04
0.728,8.112
0.732,8.116
0.736,8
0.74,7.996
0.744,8.032
0.748,8.036
0.752,8.04
0.756,8
0.76,8.04
0.764,8.008
0.768,7.996
0.772,7.988
0.776,8.04
0.78,8.072
0.784,8.012
0.788,7.944
0.792,7.96
0.796,8.028
0.8,7.98
0.804,7.972
0.808,8.016
0.812,8.024
0.816,8.012
0.82,7.964
0.824,7.996
0.828,8.004
0.832,8.008
0.836,7.976
0.84,7.992
0.844,8.036
0.848,8.044
0.852,8.004
0.856,7.964
0.86,7.988
0.864,8.028
0.868,7.956
0.872,7.936
0.876,8.008
0.88,8.04
0.884,7.992
0.888,7.932
0.892,7.972
0.896,7.98
0.9,7.964
0.904,7.968
0.908,7.992
0.912,8.008
0.916,7.992
0.92,7.948
0.924,7.936
0.928,8
0.932,8
0.936,7.952
0.94,7.948
0.944,7.972
0.948,8
0.952,7.912
0.956,7.924
0.96,8.024
0.964,8.068
0.968,7.952
0.972,7.968
0.976,8.016
0.98,8.144
0.984,8.172
0.988,8.152
0.992,8.136
0.996,8.188
1,8.168
1.004,8.14
1.008,8.192
1.012,8.236
1.016,8.176
1.02,8.14
1.024,8.116
1.028,8.132
1.032,8.092
1.036,8.048
1.04,8.032
1.044,8.06
1.048,8.096
1.052,8.028
1.056,7.96
1.06,7.956
1.064,7.996
1.068,7.956
1.072,7.928
1.076,7.964
1.08,7.96
1.084,7.92
1.088,7.924
1.092,7.94
1.096,7.94
1.1,7.944
1.104,7.9
1.108,7.936
1.112,8.012
1.116,8.036
1.12,7.972
1.124,7.94
1.128,7.956
1.132,7.976
1.136,7.972
1.14,7.996
1.144,8.008
1.148,8.028
1.152,7.948
1.156,7.936
1.16,7.96
1.164,8
1.168,7.9
1.172,7.752
1.176,7.74
1.18,7.832
1.184,8.228
1.188,9.152
1.192,10.6
1.196,12.072
1.2,13.268
1.204,13.476
1.208,12.128
1.212,10.02
1.216,8.376
1.22,7.804
1.224,7.784
1.228,7.844
1.232,7.944
1.236,8.004
1.24,8.18
1.244,8.24
1.248,8.2
1.252,8.164
1.256,8.14
1.26,8.292
1.264,8.296
1.268,8.22
1.272,8.18
1.276,8.276
1.28,8.22
1.284,8.172
1.288,8.224
1.292,8.136
1.296,8.06
1.3,8.024
1.304,7.976
1.308,8.056
1.312,8.108
1.316,8.148
1.32,8.152
1.324,8.32
1.328,8.58
1.332,8.48
1.336,8.448
1.34,8.532
1.344,8.552
1.348,8.392
1.352,8.168
1.356,8.108
1.36,8.16
1.364,8.144
1.368,8.192
1.372,8.24
1.376,8.344
1.38,8.456
1.384,8.476
1.388,8.52
1.392,8.576
1.396,8.564
1.4,8.5
1.404,8.532
1.408,8.676
1.412,8.904
1.416,8.92
1.42,8.996
1.424,9.04
1.428,9.088
1.432,9.096
1.436,8.968
1.44,8.912
1.444,8.992
1.448,9.1
1.452,9.164
1.456,9.272
1.46,9.36
1.464,9.424
1.468,9.56
1.472,9.592
1.476,9.452
1.48,9.332
1.484,9.288
1.488,9.148
1.492,9.132
1.496,9.012
1.5,8.816
1.504,8.76
1.508,8.736
1.512,8.756
1.516,8.696
1.52,8.568
1.524,8.28
1.528,8.184
1.532,8.236
1.536,8.188
1.54,8.128
1.544,8.136
1.548,8.104
1.552,8.052
1.556,8.056
1.56,8.176
1.564,8.072
1.568,8.036
1.572,8.012
1.576,8.008
1.58,7.988
1.584,7.984
1.588,7.992
1.592,8.056
1.596,8.096
1.6,8.044
1.604,8.108
1.608,8.072
1.612,8.024
1.616,8.028
1.62,8.012
1.624,8.06
1.628,8.088
1.632,8.108
1.636,8.116
1.64,8.052
1.644,8.008
1.648,7.98
1.652,7.896
1.656,7.876
1.66,8.04
1.664,8.128
1.668,8.12
1.672,8.232
1.676,8.16
1.68,8.184
1.684,8.132
1.688,8.08
1.692,8.068
1.696,7.98
1.7,7.956
1.704,8.104
1.708,8.224
1.712,8.236
1.716,8.144
1.72,8.08
1.724,8.004
1.728,8.056
1.732,8.076
1.736,8.088
1.74,8.144
1.744,8.168
1.748,8
1.752,7.904
1.756,7.9
1.76,8.024
1.764,8.12
1.768,7.984
1.772,7.964
1.776,7.988
1.78,7.996
1.784,7.96
1.788,8.024
1.792,8.08
1.796,8.192
1.8,8.148
1.804,8.032
1.808,7.924
1.812,7.916
1.816,7.964
1.82,7.788
1.824,7.704
1.828,7.72
1.832,7.764
1.836,7.82
1.84,7.868
1.844,7.952
1.848,7.808
1.852,7.648
1.856,7.796
1.86,8.052
1.864,8.036
1.868,7.712
1.872,7.692
1.876,7.952
1.88,8.076
1.884,8.084
1.888,8.12
1.892,8.088
1.896,7.928
1.9,7.924
1.904,7.952
1.908,8.1
1.912,8.152
1.916,8.016
1.92,7.884
1.924,7.976
1.928,7.928
1.932,7.76
1.936,7.784
1.94,7.924
1.944,8.092
1.948,7.9
1.952,7.668
1.956,7.688
1.96,7.9
1.964,8
1.968,7.928
1.972,7.852
1.976,7.976
1.98,7.816
1.984,7.72
1.988,7.832
1.992,7.856
1.996,7.972
2,8.064
2.004,7.944
2.008,7.704
2.012,7.7
2.016,7.776
2.02,7.824
2.024,7.704
2.028,7.788
2.032,7.916
2.036,7.944
2.04,7.736
2.044,7.732
2.048,7.864
2.052,8.032
2.056,8.176
2.06,7.864
2.064,7.752
2.068,7.524
2.072,7.344
2.076,7.516
2.08,8.044
2.084,9.052
2.088,10.416
2.092,11.796
2.096,13.08
2.1,13.636
2.104,12.4
2.108,10.152
2.112,8.504
2.116,7.892
2.12,7.728
2.124,7.708
2.128,7.76
2.132,7.932
2.136,7.964
2.14,7.98
2.144,8.028
2.148,8.028
2.152,8.004
2.156,7.948
2.16,7.988
2.164,8.18
2.168,8.324
2.172,7.972
2.176,7.82
2.18,7.988
2.184,8.268
2.188,8.172
2.192,8.04
2.196,7.948
2.2,7.88
2.204,7.98
2.208,8.196
2.212,8.244
2.216,8.032
2.22,7.988
2.224,8.108
2.228,8.296
2.232,8.244
2.236,8.136
2.24,8.308
2.244,8.42
2.248,8.184
2.252,8.052
2.256,8.06
2.26,8.172
2.264,8.212
2.268,8.268
2.272,8.3
2.276,8.132
2.28,8.148
2.284,8.388
2.288,8.5
2.292,8.468
2.296,8.476
2.3,8.368
2.304,8.624
2.308,8.828
2.312,8.56
2.316,8.136
2.32,8.196
2.324,8.388
2.328,8.664
2.332,8.852
2.336,8.892
2.34,8.808
2.344,9.008
2.348,9.224
2.352,8.992
2.356,9.072
2.36,9.3
2.364,9.46
2.368,9.36
2.372,9.408
2.376,9.584
2.38,9.244
2.384,8.896
2.388,8.748
2.392,8.86
2.396,8.84
2.4,8.704
2.404,8.668
2.408,8.42
2.412,8.54
2.416,8.46
2.42,8.172
2.424,8.12
2.428,8.32
2.432,8.192
2.436,7.98
2.44,8.084
2.444,8.232
2.448,8.076
2.452,7.756
2.456,7.728
2.46,7.796
2.464,8.096
2.468,8.18
2.472,7.956
2.476,7.98
2.48,8.028
2.484,7.764
2.488,7.74
2.492,7.812
2.496,7.904
2.5,7.976
2.504,7.972
2.508,7.916
2.512,7.724
2.516,7.684
2.52,7.812
2.524,8.068
2.528,8.344
2.532,8.188
2.536,7.66
2.54,7.796
2.544,7.9
2.548,7.86
2.552,7.832
2.556,7.812
2.56,7.824
2.564,7.896
2.568,7.9
2.572,7.776
2.576,7.876
2.58,7.924
2.584,8.088
2.588,8.128
2.592,8.128
2.596,8.132
2.6,7.764
2.604,7.56
2.608,7.728
2.612,7.82
2.616,7.896
2.62,7.92
2.624,8.008
2.628,7.98
2.632,7.84
2.636,7.74
2.64,7.68
2.644,7.948
2.648,8.172
2.652,8.016
2.656,7.744
2.66,7.644
2.664,7.716
2.668,7.916
2.672,8.004
2.676,8.22
2.68,8.444
2.684,7.832
2.688,7.464
2.692,7.756
2.696,7.696
2.7,7.656
2.704,7.848
2.708,8.028
2.712,7.916
2.716,7.648
2.72,7.64
2.724,7.684
2.728,7.772
2.732,7.868
2.736,7.8
2.74,7.996
2.744,8.28
2.748,8.132
2.752,7.8
2.756,7.736
2.76,7.676
2.764,7.816
2.768,7.968
2.772,7.896
2.776,7.88
2.78,8.008
2.784,7.944
2.788,8.012
2.792,8.26
2.796,8.292
2.8,8.184
2.804,8.092
2.808,7.816
2.812,7.752
2.816,7.972
2.82,8.064
2.824,7.956
2.828,7.956
2.832,7.936
2.836,7.952
2.84,7.932
2.844,7.84
2.848,7.976
2.852,7.756
2.856,7.692
2.86,7.756
2.864,7.892
2.868,7.712
2.872,7.652
2.876,7.784
2.88,7.856
2.884,7.652
2.888,7.708
2.892,7.86
2.896,7.924
2.9,7.876
2.904,7.744
2.908,7.656
2.912,7.7
2.916,7.792
2.92,7.848
2.924,7.708
2.928,7.796
2.932,7.908
2.936,7.832
2.94,7.804
2.944,7.892
2.948,7.704
2.952,7.728
2.956,7.796
2.96,7.976
2.964,7.92
2.968,7.584
2.972,7.464
2.976,7.572
2.98,7.896
2.984,8.4
2.988,9.476
2.992,10.972
2.996,12.552
3,13.532
3.004,13.04
3.008,11.404
3.012,9.248
3.016,8
3.02,7.768
3.024,7.756
3.028,8.016
3.032,7.772
3.036,7.608
3.04,7.84
3.044,8.084
3.048,8.164
3.052,7.892
3.056,7.816
3.06,7.944
3.064,8.084
3.068,8.16
3.072,8.188
3.076,8.06
3.08,7.9
3.084,8.04
3.088,7.984
3.092,7.908
3.096,7.976
3.1,8.156
3.104,8.048
3.108,7.912
3.112,7.936
3.116,8.068
3.12,8.128
3.124,8.18
3.128,8.132
3.132,7.984
3.136,7.916
3.14,8.092
3.144,8.216
3.148,8.176
3.152,8.12
3.156,8.292
3.16,8.348
3.164,8.116
3.168,8.192
3.172,8.284
3.176,8.296
3.18,8.276
3.184,8.292
3.188,8.216
3.192,8.372
3.196,8.352
3.2,8.16
3.204,8.252
3.208,8.552
3.212,8.584
3.216,8.472
3.22,8.596
3.224,8.744
3.228,8.792
3.232,8.736
3.236,8.672
3.24,8.888
3.244,9.208
3.248,9.008
3.252,8.932
3.256,9.152
3.26,9.312
3.264,9.224
3.268,9.04
3.272,9.104
3.276,9.248
3.28,9.392
3.284,9.3
3.288,9.092
3.292,8.836
3.296,8.728
3.3,8.604
3.304,8.66
3.308,8.664
3.312,8.488
3.316,8.284
3.32,8.184
3.324,8.148
3.328,8.096
3.332,8.004
3.336,8.024
3.34,8.276
3.344,8.112
3.348,7.872
3.352,7.756
3.356,7.908
3.36,7.968
3.364,7.812
3.368,7.8
3.372,7.868
3.376,7.888
3.38,7.976
3.384,8.008
3.388,7.912
3.392,7.852
3.396,7.976
3.4,7.924
3.404,7.88
3.408,7.896
3.412,8.012
3.416,7.924
3.42,7.784
3.424,7.716
3.428,7.876
3.432,7.976
3.436,8.04
3.44,8.02
3.444,7.92
3.448,7.92
3.452,7.84
3.456,7.704
3.46,7.74
3.464,7.848
3.468,7.904
3.472,8.128
3.476,8.108
3.48,7.928
3.484,7.94
3.488,7.912
3.492,7.812
3.496,7.86
3.5,7.8
3.504,7.772
3.508,7.908
3.512,8.08
3.516,7.992
3.52,7.812
3.524,7.808
3.528,7.852
3.532,7.928
3.536,8.068
3.54,7.916
3.544,7.7
3.548,7.908
3.552,7.936
3.556,7.904
3.56,7.9
3.564,7.952
3.568,7.884
3.572,7.792
3.576,7.868
3.58,7.952
3.584,7.832
3.588,7.844
3.592,8.08
3.596,7.896
3.6,7.712
3.604,7.92
3.608,7.924
3.612,7.704
3.616,7.692
3.62,7.76
3.624,7.796
3.628,7.94
3.632,7.94
3.636,7.852
3.64,7.92
3.644,7.976
3.648,7.88
3.652,7.828
3.656,7.936
3.66,7.924
3.664,8.02
3.668,8.096
3.672,8.036
3.676,7.708
3.68,7.576
3.684,7.704
3.688,7.812
3.692,7.876
3.696,7.964
3.7,7.96
3.704,7.804
3.708,7.932
3.712,8.032
3.716,7.996
3.72,7.988
3.724,8.048
3.728,8.08
3.732,8.032
3.736,8.048
3.74,8.12
3.744,8.164
3.748,8.084
3.752,8.024
3.756,7.976
3.76,7.968
3.764,8.024
3.768,7.82
3.772,7.832
3.776,8.048
3.78,8.144
3.784,7.896
3.788,7.696
3.792,7.812
3.796,7.964
3.8,7.872
3.804,7.84
3.808,7.936
3.812,7.888
3.816,7.864
3.82,7.736
3.824,7.632
3.828,7.716
3.832,7.996
3.836,7.94
3.84,7.752
3.844,7.728
3.848,7.724
3.852,7.704
3.856,7.768
3.86,7.896
3.864,8.064
3.868,8.092
3.872,7.824
3.876,7.668
3.88,7.86
3.884,7.888
3.888,7.852
3.892,7.916
3.896,7.884
3.9,7.708
3.904,7.704
3.908,7.788
3.912,7.856
3.916,7.788
3.92,7.68
3.924,7.592
3.928,7.756
3.932,7.948
3.936,8.784
3.94,10.096
3.944,11.168
3.948,12.368
3.952,13.508
3.956,13.232
3.96,11.752
3.964,9.544
3.968,8.14
3.972,7.816
3.976,7.76
3.98,7.724
3.984,7.896
3.988,8.152
3.992,8.328
3.996,8.372
4,8.012
4.004,7.864
4.008,7.952
4.012,8.112
4.016,8.104
4.02,7.832
4.024,7.828
4.028,7.928
4.032,8.1
4.036,8.216
4.04,7.984
4.044,7.98
4.048,8.1
4.052,8.024
4.056,8.092
4.06,8.296
4.064,8.14
4.068,7.972
4.072,7.944
4.076,8.02
4.08,8.092
4.084,8.044
4.088,7.964
4.092,8.032
4.096,8.12
4.1,8.192
4.104,8.188
4.108,8.296
4.112,8.292
4.116,8.192
4.12,8.116
4.124,8.156
4.128,8.348
4.132,8.324
4.136,8.16
4.14,8.092
4.144,8.18
4.148,8.36
4.152,8.352
4.156,8.3
4.16,8.408
4.164,8.536
4.168,8.444
4.172,8.42
4.176,8.648
4.18,8.888
4.184,8.76
4.188,8.608
4.192,8.792
4.196,8.912
4.2,8.896
4.204,8.944
4.208,9.04
4.212,9.172
4.216,9.272
4.22,9.236
4.224,9.152
4.228,9.312
4.232,9.304
4.236,9.264
4.24,9.092
4.244,9.016
4.248,8.864
4.252,8.64
4.256,8.604
4.26,8.632
4.264,8.592
4.268,8.336
4.272,8.26
4.276,8.32
4.28,8.312
4.284,8.108
4.288,7.996
4.292,8.116
4.296,8.064
4.3,7.816
4.304,7.736
4.308,7.844
4.312,7.988
4.316,8.08
4.32,7.932
4.324,7.888
4.328,7.92
4.332,7.876
4.336,7.92
4.34,7.992
4.344,8.02
4.348,7.916
4.352,7.872
4.356,7.844
4.36,8.064
4.364,8.076
4.368,7.984
4.372,7.952
4.376,7.752
4.38,7.732
4.384,7.78
4.388,7.912
4.392,8.012
4.396,8.064
4.4,8
4.404,7.84
4.408,7.776
4.412,7.8
4.416,7.82
4.42,7.82
4.424,7.908
4.428,8.184
4.432,8.164
4.436,7.788
4.44,7.796
4.444,7.904
4.448,7.86
4.452,7.708
4.456,7.748
4.46,7.82
4.464,7.976
4.468,7.924
4.472,7.872
4.476,7.82
4.48,7.84
4.484,7.824
4.488,7.82
4.492,7.852
4.496,7.972
4.5,8.056
4.504,7.86
4.508,7.856
4.512,7.852
4.516,7.86
4.52,7.832
4.524,7.828
4.528,7.852
4.532,7.976
4.536,7.888
4.54,7.772
4.544,7.712
4.548,7.78
4.552,7.832
4.556,7.804
4.56,7.864
4.564,7.968
4.568,7.976
4.572,7.768
4.576,7.784
4.58,7.928
4.584,7.876
4.588,7.888
4.592,7.98
4.596,7.856
4.6,7.656
4.604,7.696
4.608,7.756
4.612,7.84
4.616,7.928
4.62,7.868
4.624,7.772
4.628,7.756
4.632,7.736
4.636,7.856
4.64,7.824
4.644,7.776
4.648,7.844
4.652,7.94
4.656,7.896
4.66,7.86
4.664,7.82
4.668,7.916
4.672,7.92
4.676,7.768
4.68,7.744
4.684,7.748
4.688,7.796
4.692,7.868
4.696,7.868
4.7,7.844
4.704,7.828
4.708,7.78
4.712,7.796
4.716,7.812
4.72,7.88
4.724,7.92
4.728,7.964
4.732,7.74
4.736,7.712
4.74,7.86
4.744,7.928
4.748,7.844
4.752,7.808
4.756,7.812
4.76,7.868
4.764,7.804
4.768,7.756
4.772,7.784
4.776,7.856
4.78,7.856
4.784,7.828
4.788,7.872
4.792,7.896
4.796,7.832
4.8,7.832
4.804,7.84
4.808,7.916
4.812,7.788
4.816,7.82
4.82,7.772
4.824,7.796
4.828,7.848
4.832,7.98
4.836,7.908
4.84,7.74
4.844,7.724
4.848,7.78
4.852,7.776
4.856,7.824
4.86,7.916
4.864,7.952
4.868,7.896
4.872,7.824
4.876,7.848
4.88,7.904
4.884,7.884
4.888,7.94
4.892,7.884
4.896,7.84
4.9,7.728
4.904,7.732
4.908,7.864
4.912,7.896
4.916,7.792
4.92,7.816
4.924,7.848
4.928,8.032
4.932,7.888
4.936,7.756
4.94,7.86
4.944,8.084
4.948,8.18
4.952,8.036
4.956,7.936
4.96,7.964
4.964,8.144
4.968,8.136
4.972,8.092
4.976,8.072
4.98,8.064
4.984,8.048
4.988,7.988
4.992,7.992
4.996,7.988
5,7.936
5.004,7.996
5.008,7.824
5.012,7.724
5.016,7.756
5.02,7.924
5.024,7.956
5.028,7.768
5.032,7.684
5.036,7.704
5.04,7.696
5.044,7.836
5.048,7.82
5.052,7.816
5.056,7.92
5.06,7.996
5.064,7.856
5.068,7.744
5.072,7.828
5.076,7.956
5.08,7.788
5.084,7.612
5.088,7.736
5.092,7.744
5.096,7.756
5.1,7.708
5.104,7.756
5.108,7.824
5.112,7.852
5.116,7.932
5.12,7.908
5.124,7.82
5.128,7.832
5.132,7.796
5.136,7.74
5.14,7.728
5.144,7.672
5.148,8.128
5.152,9.292
5.156,10.9
5.16,12.288
5.164,13.304
5.168,13.304
5.172,11.944
5.176,9.788
5.18,8.324
5.184,7.736
5.188,7.648
5.192,7.716
5.196,7.84
5.2,7.884
5.204,8.004
5.208,8.052
5.212,8.024
5.216,7.996
5.22,8.068
5.224,8.148
5.228,8.108
5.232,7.924
5.236,7.836
5.24,7.828
5.244,8.064
5.248,8.128
5.252,8.012
5.256,7.872
5.26,7.86
5.264,8.032
5.268,8.136
5.272,8.02
5.276,7.936
5.28,7.968
5.284,7.912
5.288,7.952
5.292,8.06
5.296,8.256
5.3,8.196
5.304,7.88
5.308,8.004
5.312,8.184
5.316,8.184
5.32,8.104
5.324,7.988
5.328,8.116
5.332,8.18
5.336,8.208
5.34,8.292
5.344,8.228
5.348,8.144
5.352,8.156
5.356,8.116
5.36,8.284
5.364,8.384
5.368,8.336
5.372,8.392
5.376,8.452
5.38,8.404
5.384,8.44
5.388,8.464
5.392,8.476
5.396,8.632
5.4,8.588
5.404,8.6
5.408,8.74
5.412,8.928
5.416,9.048
5.42,8.876
5.424,8.82
5.428,9.016
5.432,9.124
5.436,9.156
5.44,9.156
5.444,9.228
5.448,9.316
5.452,9.228
5.456,9.084
5.46,9.012
5.464,8.984
5.468,8.864
5.472,8.564
5.476,8.516
5.48,8.572
5.484,8.492
5.488,8.264
5.492,8.132
5.496,8.14
5.5,8.1
5.504,8.024
5.508,7.988
5.512,8.024
5.516,8.092
5.52,8.02
5.524,7.888
5.528,7.888
5.532,7.944
5.536,7.956
5.54,7.996
5.544,7.956
5.548,7.984
5.552,7.952
5.556,7.876
5.56,7.872
5.564,7.852
5.568,7.892
5.572,7.856
5.576,7.788
5.58,7.872
5.584,7.892
5.588,7.928
5.592,7.912
5.596,7.912
5.6,7.84
5.604,7.888
5.608,7.844
5.612,7.864
5.616,7.932
5.62,7.924
5.624,8.028
5.628,8.016
5.632,7.972
5.636,7.912
5.64,7.604
5.644,7.704
5.648,7.836
5.652,7.86
5.656,7.856
5.66,7.852
5.664,7.812
5.668,7.784
5.672,7.84
5.676,7.912
5.68,7.912
5.684,7.828
5.688,7.952
5.692,8.02
5.696,8
5.7,7.944
5.704,7.888
5.708,7.848
5.712,7.712
5.716,7.764
5.72,7.72
5.724,7.688
5.728,7.724
5.732,7.788
5.736,7.752
5.74,7.736
5.744,7.82
5.748,7.896
5.752,7.804
5.756,7.772
5.76,7.792
5.764,7.964
5.768,8.008
5.772,8.124
5.776,7.828
5.78,7.728
5.784,7.628
5.788,7.608
5.792,7.744
5.796,7.844
5.8,7.752
5.804,7.68
5.808,7.684
5.812,7.8
5.816,7.78
5.82,7.704
5.824,7.92
5.828,8.04
5.832,7.88
5.836,7.68
5.84,7.56
5.844,7.768
5.848,7.876
5.852,7.748
5.856,7.7
5.86,7.724
5.864,7.856
5.868,7.876
5.872,7.8
5.876,7.692
5.88,7.744
5.884,7.72
5.888,7.696
5.892,7.744
5.896,7.824
5.9,7.876
5.904,7.852
5.908,7.784
5.912,7.808
5.916,7.74
5.92,7.764
5.924,7.884
5.928,7.728
5.932,7.66
5.936,7.716
5.94,7.788
5.944,7.756
5.948,7.78
5.952,7.78
5.956,7.708
5.96,7.776
5.964,7.788
5.968,7.716
5.972,7.68
5.976,7.772
5.98,7.828
5.984,7.84
5.988,7.864
5.992,7.8
5.996,7.8
6,7.716
6.004,7.584
6.008,7.628
6.012,7.72
6.016,7.828
6.02,7.872
6.024,7.864
6.028,7.872
6.032,7.74
6.036,7.62
6.04,7.712
6.044,7.768
6.048,7.748
6.052,7.8
6.056,7.892
6.06,8.084
6.064,8.152
6.068,7.956
6.072,7.896
6.076,7.952
6.08,7.884
6.084,7.896
6.088,7.98
6.092,8.14
6.096,7.96
6.1,7.812
6.104,7.86
6.108,7.896
6.112,7.844
6.116,7.772
6.12,7.804
6.124,7.796
6.128,7.876
6.132,7.844
6.136,7.724
6.14,7.636
6.144,7.716
6.148,7.76
6.152,7.808
6.156,7.72
6.16,7.732
6.164,7.736
6.168,7.736
6.172,7.704
6.176,7.668
6.18,7.792
6.184,7.66
6.188,7.588
6.192,7.696
6.196,7.884
6.2,7.816
6.204,7.708
6.208,7.728
6.212,7.748
6.216,7.772
6.22,7.7
6.224,7.772
6.228,7.9
6.232,7.744
6.236,7.628
6.24,7.668
6.244,7.736
6.248,7.76
6.252,7.756
6.256,7.692
6.26,7.568
6.264,7.548
6.268,7.58
6.272,8.12
6.276,9.264
6.28,10.712
6.284,12.112
6.288,13.312
6.292,13.464
6.296,12.252
6.3,9.928
6.304,8.02
6.308,7.504
6.312,7.504
6.316,7.596
6.32,7.66
6.324,7.772
6.328,7.98
6.332,8.012
6.336,8.076
6.34,8.048
6.344,7.924
6.348,7.968
6.352,7.852
6.356,7.848
6.36,7.948
6.364,8.12
6.368,8.024
6.372,7.896
6.376,7.888
6.38,7.968
6.384,8.092
6.388,8.06
6.392,8.008
6.396,7.964
6.4,7.916
6.404,8.016
6.408,8.084
6.412,8.024
6.416,8.1
6.42,8.112
6.424,8.008
6.428,8.028
6.432,8.06
6.436,8.228
6.44,8.224
6.444,8.132
6.448,8.236
6.452,8.232
6.456,8.148
6.46,8.152
6.464,8.108
6.468,8.256
6.472,8.288
6.476,8.276
6.48,8.3
6.484,8.292
6.488,8.276
6.492,8.332
6.496,8.388
6.5,8.38
6.504,8.384
6.508,8.524
6.512,8.628
6.516,8.644
6.52,8.672
6.524,8.912
6.528,8.92
6.532,8.8
6.536,8.852
6.54,8.968
6.544,8.96
6.548,9.024
6.552,9.056
6.556,9.084
6.56,9.22
6.564,9.3
6.568,9.304
6.572,9.232
6.576,9.252
6.58,9.248
6.584,9.152
6.588,8.92
6.592,8.788
6.596,8.62
6.6,8.38
6.604,8.316
6.608,8.28
6.612,8.184
6.616,8.136
6.62,8.096
6.624,8.088
6.628,8.072
6.632,7.892
6.636,7.908
6.64,7.912
6.644,8.076
6.648,8.108
6.652,8.032
6.656,7.896
6.66,7.728
6.664,7.764
6.668,7.868
6.672,7.9
6.676,7.92
6.68,7.948
6.684,7.804
6.688,7.736
6.692,7.752
6.696,7.852
6.7,7.932
6.704,7.824
6.708,7.832
6.712,7.876
6.716,7.896
6.72,7.98
6.724,7.844
6.728,7.78
6.732,7.748
6.736,7.728
6.74,7.86
6.744,7.996
6.748,7.924
6.752,7.856
6.756,7.824
6.76,7.8
6.764,7.88
6.768,7.836
6.772,7.792
6.776,7.832
6.78,8.004
6.784,7.988
6.788,7.816
6.792,7.784
6.796,7.724
6.8,7.768
6.804,7.804
6.808,7.856
6.812,7.82
6.816,7.764
6.82,7.824
6.824,7.916
6.828,7.912
6.832,7.852
6.836,7.752
6.84,7.792
6.844,7.952
6.848,7.94
6.852,7.696
6.856,7.584
6.86,7.716
6.864,7.9
6.868,7.896
6.872,7.784
6.876,7.716
6.88,7.788
6.884,7.796
6.888,7.724
6.892,7.86
6.896,7.956
6.9,7.824
6.904,7.684
6.908,7.76
6.912,7.784
6.916,7.752
6.92,7.812
6.924,7.78
6.928,7.724
6.932,7.784
6.936,7.864
6.94,7.908
6.944,7.848
6.948,7.748
6.952,7.696
6.956,7.64
6.96,7.86
6.964,7.94
6.968,7.776
6.972,7.696
6.976,7.804
6.98,7.84
6.984,7.66
6.988,7.776
6.992,7.932
6.996,7.88
7,7.776
7.004,7.704
7.008,7.772
7.012,7.824
7.016,7.756
7.02,7.704
7.024,7.76
7.028,7.828
7.032,7.748
7.036,7.74
7.04,7.796
7.044,7.856
7.048,7.868
7.052,7.912
7.056,7.932
7.06,7.804
7.064,7.74
7.068,7.68
7.072,7.756
7.076,7.82
7.08,7.884
7.084,7.836
7.088,7.68
7.092,7.74
7.096,7.892
7.1,7.796
7.104,7.712
7.108,7.752
7.112,7.852
7.116,7.892
7.12,7.76
7.124,7.696
7.128,7.78
7.132,7.82
7.136,7.78
7.14,7.852
7.144,7.808
7.148,7.82
7.152,7.82
7.156,7.844
7.16,7.928
7.164,8.028
7.168,8.176
7.172,7.988
7.176,7.748
7.18,7.796
7.184,7.94
7.188,7.976
7.192,7.996
7.196,8.036
7.2,7.904
7.204,7.848
7.208,7.832
7.212,8.032
7.216,7.94
7.22,7.68
7.224,7.792
7.228,7.972
7.232,7.892
7.236,7.804
7.24,7.788
7.244,7.82
7.248,7.8
7.252,7.672
7.256,7.68
7.26,7.692
7.264,7.692
7.268,7.716
7.272,7.868
7.276,7.924
7.28,7.82
7.284,7.712
7.288,7.732
7.292,7.836
7.296,7.772
7.3,7.736
7.304,7.78
7.308,7.816
7.312,7.86
7.316,7.74
7.32,7.664
7.324,7.728
7.328,7.8
7.332,7.908
7.336,7.796
7.34,7.732
7.344,7.792
7.348,7.88
7.352,7.832
7.356,7.816
7.36,7.684
7.364,7.676
7.368,7.732
7.372,8.432
7.376,9.696
7.38,11.212
7.384,12.56
7.388,13.42
7.392,13.156
7.396,11.764
7.4,9.58
7.404,8.116
7.408,7.716
7.412,7.748
7.416,7.828
7.42,7.944
7.424,7.964
7.428,8.056
7.432,8.044
7.436,8.096
7.44,8.112
7.444,8.04
7.448,8.02
7.452,7.932
7.456,7.888
7.46,7.956
7.464,8.06
7.468,8.14
7.472,8.064
7.476,8.024
7.48,7.968
7.484,7.932
7.488,7.944
7.492,8.064
7.496,8.12
7.5,8.024
7.504,7.956
7.508,7.98
7.512,8.152
7.516,8.296
7.52,8.14
7.524,7.972
7.528,8.052
7.532,8.06
7.536,8.024
7.54,8.172
7.544,8.236
7.548,8.204
7.552,8.096
7.556,8.116
7.56,8.332
7.564,8.372
7.568,8.256
7.572,8.108
7.576,8.292
7.58,8.476
7.584,8.48
7.588,8.344
7.592,8.188
7.596,8.264
7.6,8.364
7.604,8.372
7.608,8.504
7.612,8.708
7.616,8.884
7.62,8.712
7.624,8.624
7.628,8.752
7.632,8.816
7.636,8.936
7.64,9.136
7.644,9.108
7.648,9.032
7.652,9.04
7.656,9.212
7.66,9.216
7.664,9.196
7.668,9.336
7.672,9.364
7.676,9.312
7.68,9.124
7.684,8.976
7.688,8.992
7.692,8.884
7.696,8.688
7.7,8.544
7.704,8.34
7.708,8.232
7.712,8.232
7.716,8.324
7.72,8.364
7.724,8.232
7.728,8.08
7.732,7.964
7.736,7.952
7.74,7.96
7.744,8.048
7.748,8.156
7.752,7.996
7.756,7.956
7.76,7.936
7.764,7.9
7.768,7.88
7.772,7.876
7.776,7.916
7.78,7.972
7.784,7.924
7.788,7.876
7.792,7.872
7.796,8.02
7.8,7.964
7.804,7.916
7.808,7.884
7.812,7.96
7.816,8.052
7.82,8.028
7.824,7.912
7.828,7.864
7.832,7.884
7.836,7.824
7.84,7.88
7.844,8.016
7.848,8.072
7.852,7.876
7.856,7.736
7.86,7.792
7.864,7.904
7.868,7.992
7.872,7.968
7.876,8.048
7.88,8.128
7.884,8.052
7.888,8.088
7.892,8.012
7.896,7.856
7.9,7.808
7.904,7.82
7.908,7.764
7.912,7.916
7.916,8.064
7.92,8.02
7.924,7.788
7.928,7.792
7.932,7.82
7.936,7.944
7.94,7.956
7.944,7.844
7.948,7.836
7.952,7.844
7.956,7.912
7.96,7.924
7.964,7.964
7.968,8.036
7.972,7.972
7.976,7.94
7.98,8.008
7.984,7.94
7.988,7.824
7.992,7.78
7.996,7.844
8,7.82
8.004,7.836
8.008,7.804
8.012,7.808
8.016,7.856
8.02,7.924
8.024,7.864
8.028,7.972
8.032,7.988
8.036,7.908
8.04,7.948
8.044,7.932
8.048,7.88
8.052,7.912
8.056,7.824
8.06,7.824
8.064,7.86
8.068,7.84
8.072,7.816
8.076,7.796
8.08,7.888
8.084,8.004
8.088,7.98
8.092,7.972
8.096,7.892
8.1,7.78
8.104,7.812
8.108,7.88
8.112,7.904
8.116,7.884
8.12,7.832
8.124,7.784
8.128,7.936
8.132,7.96
8.136,8.008
8.14,7.84
8.144,7.844
8.148,7.88
8.152,7.912
8.156,7.968
8.16,7.868
8.164,7.84
8.168,7.884
8.172,7.888
8.176,7.9
8.18,7.912
8.184,7.924
8.188,7.996
8.192,7.8
8.196,7.864
8.2,7.912
8.204,7.964
8.208,7.884
8.212,7.792
8.216,7.804
8.22,7.812
8.224,7.836
8.228,7.912
8.232,8.024
8.236,7.948
8.24,7.924
8.244,7.992
8.248,7.824
8.252,7.804
8.256,7.84
8.26,8.064
8.264,8.064
8.268,7.784
8.272,7.772
8.276,7.788
8.28,7.856
8.284,7.888
8.288,7.944
8.292,7.948
8.296,7.94
8.3,7.88
8.304,7.868
8.308,7.932
8.312,7.96
8.316,7.984
8.32,7.944
8.324,7.844
8.328,7.904
8.332,7.912
8.336,7.844
8.34,7.784
8.344,7.848
8.348,8.012
8.352,8
8.356,7.844
8.36,7.808
8.364,7.956
8.368,8.064
8.372,8.112
8.376,8.196
8.38,8.172
8.384,8.232
8.388,8.244
8.392,7.996
8.396,7.896
8.4,8.04
8.404,8.112
8.408,8.152
8.412,7.996
8.416,7.924
8.42,7.928
8.424,7.868
8.428,7.948
8.432,8.04
8.436,8
8.44,7.912
8.444,8.008
8.448,8.04
8.452,7.804
8.456,7.74
8.46,7.8
8.464,7.936
8.468,7.888
8.472,7.824
8.476,7.864
8.48,7.88
8.484,7.724
8.488,7.808
8.492,7.876
8.496,7.968
8.5,7.996
8.504,7.836
8.508,7.748
8.512,7.856
8.516,7.988
8.52,7.904
8.524,7.848
8.528,7.936
8.532,7.904
8.536,7.828
8.54,7.876
8.544,8
8.548,8.008
8.552,7.92
8.556,7.796
8.56,7.856
8.564,7.692
8.568,7.696
8.572,8.36
8.576,9.676
8.58,11.172
8.584,12.516
8.588,13.588
8.592,13.34
8.596,11.968
8.6,9.752
8.604,8.124
8.608,7.796
8.612,7.84
8.616,7.856
8.62,7.856
8.624,8.124
8.628,8.292
8.632,8.288
8.636,8.164
8.64,8.076
8.644,8.096
8.648,8.02
8.652,7.976
8.656,7.992
8.66,8.152
8.664,8.28
8.668,8.04
8.672,7.928
8.676,7.936
8.68,8
8.684,8.036
8.688,8.02
8.692,8.032
8.696,8.18
8.7,8.152
8.704,8.056
8.708,8.096
8.712,8.124
8.716,8.092
8.72,8.064
8.724,8.096
8.728,8.164
8.732,8.116
8.736,8.228
8.74,8.376
8.744,8.288
8.748,8.224
8.752,8.152
8.756,8.108
8.76,8.248
8.764,8.256
8.768,8.256
8.772,8.404
8.776,8.38
8.78,8.276
8.784,8.208
8.788,8.24
8.792,8.448
8.796,8.464
8.8,8.328
8.804,8.396
8.808,8.632
8.812,8.72
8.816,8.572
8.82,8.564
8.824,8.684
8.828,8.872
8.832,8.844
8.836,8.884
8.84,9.008
8.844,9.164
8.848,9.112
8.852,9.004
8.856,9.028
8.86,9.268
8.864,9.376
8.868,9.3
8.872,9.22
8.876,9.36
8.88,9.324
8.884,9.12
8.888,8.968
8.892,8.832
8.896,8.712
8.9,8.624
8.904,8.536
8.908,8.412
8.912,8.36
8.916,8.372
8.92,8.332
8.924,8.196
8.928,8.132
8.932,8.18
8.936,8.192
8.94,8.08
8.944,8.048
8.948,8.02
8.952,7.912
8.956,7.84
8.96,7.9
8.964,8.012
8.968,7.932
8.972,7.952
8.976,7.904
8.98,8.02
8.984,8.016
8.988,7.972
8.992,7.872
8.996,7.972
9,7.94
9.004,7.908
9.008,7.884
9.012,7.948
9.016,7.952
9.02,7.948
9.024,7.852
9.028,7.872
9.032,7.952
9.036,7.92
9.04,7.932
9.044,7.868
9.048,7.84
9.052,7.928
9.056,7.888
9.06,7.924
9.064,8.016
9.068,7.856
9.072,7.912
9.076,8.02
9.08,7.976
9.084,7.816
9.088,7.712
9.092,7.836
9.096,7.96
9.1,7.976
9.104,7.9
9.108,7.832
9.112,7.844
9.116,7.82
9.12,7.828
9.124,7.952
9.128,7.936
9.132,7.884
9.136,7.824
9.14,7.772
9.144,7.868
9.148,7.94
9.152,7.92
9.156,7.868
9.16,7.868
9.164,7.856
9.168,7.836
9.172,7.792
9.176,7.84
9.18,7.868
9.184,7.832
9.188,7.808
9.192,7.884
9.196,7.896
9.2,7.864
9.204,7.856
9.208,7.732
9.212,7.796
9.216,7.872
9.22,7.908
9.224,7.84
9.228,7.764
9.232,7.772
9.236,7.76
9.24,7.844
9.244,7.832
9.248,7.8
9.252,7.824
9.256,7.816
9.26,7.868
9.264,7.88
9.268,7.832
9.272,7.8
9.276,7.804
9.28,7.768
9.284,7.788
9.288,7.884
9.292,7.96
9.296,7.76
9.3,7.716
9.304,7.716
9.308,7.78
9.312,7.856
9.316,7.828
9.32,7.812
9.324,7.832
9.328,7.832
9.332,7.828
9.336,7.832
9.34,7.824
9.344,7.86
9.348,7.928
9.352,7.836
9.356,7.832
9.36,7.744
9.364,7.836
9.368,7.876
9.372,7.736
9.376,7.764
9.38,7.868
9.384,7.9
9.388,7.752
9.392,7.804
9.396,7.848
9.4,7.82
9.404,7.816
9.408,7.86
9.412,7.8
9.416,7.756
9.42,7.752
9.424,7.756
9.428,7.82
9.432,7.812
9.436,7.78
9.44,7.788
9.444,7.952
9.448,7.844
9.452,7.736
9.456,7.868
9.46,8.1
9.464,8.176
9.468,8.152
9.472,8.188
9.476,8.028
9.48,7.932
9.484,7.86
9.488,7.856
9.492,7.96
9.496,7.904
9.5,7.828
9.504,7.84
9.508,7.892
9.512,7.9
9.516,7.88
9.52,7.864
9.524,7.924
9.528,7.996
9.532,7.916
9.536,7.76
9.54,7.728
9.544,7.84
9.548,7.96
9.552,7.888
9.556,7.848
9.56,7.768
9.564,7.744
9.568,7.724
9.572,7.748
9.576,7.796
9.58,7.812
9.584,7.768
9.588,7.808
9.592,7.892
9.596,7.788
9.6,7.78
9.604,7.816
9.608,7.844
9.612,7.868
9.616,7.86
9.62,7.688
9.624,7.704
9.628,8.004
9.632,8.1
9.636,7.896
9.64,7.72
9.644,7.748
9.648,7.712
9.652,7.632
9.656,7.704
9.66,7.672
9.664,7.8
9.668,8.544
9.672,9.88
9.676,11.416
9.68,12.856
9.684,13.688
9.688,13.072
9.692,11.388
9.696,9.128
9.7,7.888
9.704,7.56
9.708,7.652
9.712,7.788
9.716,7.872
9.72,8.008
9.724,8.116
9.728,8.132
9.732,7.956
9.736,7.912
9.74,7.892
9.744,8.012
9.748,8.064
9.752,8.028
9.756,8.116
9.76,8.152
9.764,8.064
9.768,7.928
9.772,7.916
9.776,8
9.78,7.948
9.784,7.888
9.788,7.924
9.792,7.98
9.796,8.08
9.8,8.096
9.804,8.02
9.808,8.02
9.812,8.12
9.816,8.096
9.82,8.088
9.824,8.22
9.828,8.312
9.832,8.332
9.836,8.04
9.84,7.96
9.844,8.088
9.848,8.096
9.852,8.152
9.856,8.284
9.86,8.344
9.864,8.34
9.868,8.26
9.872,8.148
9.876,8.228
9.88,8.328
9.884,8.268
9.888,8.376
9.892,8.632
9.896,8.592
9.9,8.572
9.904,8.476
9.908,8.484
9.912,8.624
9.916,8.704
9.92,8.68
9.924,8.716
9.928,8.856
9.932,9.048
9.936,9.108
9.94,9.072
9.944,9.088
9.948,9.164
9.952,9.304
9.956,9.388
9.96,9.296
9.964,9.244
9.968,9.324
9.972,9.308
9.976,9.048
9.98,8.904
9.984,8.804
9.988,8.752
9.992,8.712
9.996,8.616
10,8.412
10.004,8.236
10.008,8.188
10.012,8.14
10.016,8.188
10.02,8.076
10.024,8.024
10.028,8.052
10.032,7.976
10.036,7.836
10.04,7.8
10.044,7.884
10.048,7.924
10.052,8.016
10.056,7.964
10.06,7.908
10.064,7.872
10.068,7.808
10.072,7.816
10.076,7.892
10.08,7.86
10.084,7.772
10.088,7.788
10.092,7.964
10.096,7.936
10.1,7.828
10.104,7.796
10.108,7.76
10.112,7.816
10.116,7.848
10.12,7.824
10.124,7.908
10.128,7.916
10.132,7.952
10.136,7.828
10.14,7.72
10.144,7.764
10.148,7.896
10.152,7.94
10.156,7.804
10.16,7.924
10.164,7.896
10.168,7.752
10.172,7.816
10.176,7.94
10.18,7.968
10.184,7.844
10.188,7.824
10.192,7.9
10.196,7.936
10.2,7.816
10.204,7.68
10.208,7.82
10.212,7.848
10.216,7.752
10.22,7.84
10.224,7.956
10.228,8.072
10.232,7.82
10.236,7.644
10.24,7.668
10.244,7.692
10.248,7.792
10.252,7.872
10.256,7.908
10.26,7.884
10.264,7.82
10.268,7.764
10.272,7.72
10.276,7.848
10.28,7.876
10.284,7.852
10.288,7.776
10.292,7.76
10.296,7.928
10.3,7.98
10.304,7.756
10.308,7.644
10.312,7.732
10.316,7.836
10.32,7.764
10.324,7.696
10.328,7.828
10.332,7.916
10.336,7.904
10.34,7.84
10.344,7.716
10.348,7.708
10.352,7.704
10.356,7.76
10.36,7.796
10.364,7.828
10.368,7.756
10.372,7.824
10.376,7.804
10.38,7.792
10.384,7.744
10.388,7.696
10.392,7.752
10.396,7.872
10.4,7.848
10.404,7.82
10.408,7.836
10.412,7.784
10.416,7.86
10.42,7.832
10.424,7.752
10.428,7.756
10.432,7.896
10.436,7.916
10.44,7.776
10.444,7.74
10.448,7.772
10.452,7.868
10.456,7.992
10.46,8.06
10.464,8.012
10.468,7.9
10.472,7.848
10.476,8.092
10.48,8.072
10.484,7.972
10.488,7.78
10.492,7.792
10.496,7.916
10.5,7.88
10.504,7.88
10.508,7.884
10.512,7.972
10.516,7.86
10.52,7.8
10.524,7.752
10.528,7.804
10.532,7.912
10.536,7.756
10.54,7.568
10.544,7.644
10.548,7.696
10.552,7.68
10.556,7.88
10.56,7.832
10.564,7.788
10.568,7.808
10.572,7.808
10.576,7.88
10.58,7.788
10.584,7.74
10.588,7.732
10.592,7.724
10.596,7.76
10.6,7.72
10.604,7.712
10.608,7.76
10.612,7.8
10.616,7.76
10.62,7.708
10.624,7.728
10.628,7.804
10.632,7.852
10.636,7.88
10.64,7.816
10.644,7.688
10.648,7.704
10.652,7.68
10.656,7.936
10.66,8.608
10.664,9.804
10.668,11.336
10.672,12.748
10.676,13.564
10.68,12.972
10.684,11.144
10.688,8.908
10.692,7.788
10.696,7.572
10.7,7.476
10.704,7.528
10.708,7.688
10.712,7.952
10.716,8.212
10.72,8.148
10.724,7.932
10.728,7.952
10.732,8.04
10.736,8.016
10.74,7.94
10.744,8.06
10.748,8.02
10.752,7.892
10.756,7.912
10.76,8.04
10.764,8.148
10.768,8.004
10.772,7.98
10.776,7.968
10.78,8.116
10.784,8.068
10.788,8.068
10.792,8.02
10.796,8.104
10.8,8.08
10.804,8.208
10.808,8.112
10.812,8.048
10.816,8.048
10.82,8.092
10.824,8.208
10.828,8.356
10.832,8.224
10.836,8.092
10.84,8.084
10.844,8.148
10.848,8.236
10.852,8.384
10.856,8.232
10.86,8.228
10.864,8.372
10.868,8.312
10.872,8.316
10.876,8.432
10.88,8.492
10.884,8.404
10.888,8.384
10.892,8.62
10.896,8.748
10.9,8.676
10.904,8.632
10.908,8.652
10.912,8.856
10.916,8.872
10.92,8.9
10.924,8.996
10.928,9.02
10.932,9.132
10.936,9.316
10.94,9.36
10.944,9.252
10.948,9.368
10.952,9.356
10.956,9.372
10.96,9.348
10.964,9.132
10.968,9.024
10.972,8.976
10.976,8.852
10.98,8.652
10.984,8.504
10.988,8.44
10.992,8.424
10.996,8.3
11,8.144
11.004,8.048
11.008,8.06
11.012,8.188
11.016,8.204
11.02,7.996
11.024,7.932
11.028,7.932
11.032,7.892
11.036,7.96
11.04,7.86
11.044,7.936
11.048,7.92
11.052,7.808
11.056,7.828
11.06,7.804
11.064,7.848
11.068,8.016
11.072,7.904
11.076,7.848
11.08,7.884
11.084,7.772
11.088,7.8
11.092,7.904
11.096,7.888
11.1,7.924
11.104,7.92
11.108,7.96
11.112,7.944
11.116,7.896
11.12,7.82
11.124,7.772
11.128,7.784
11.132,7.92
11.136,7.896
11.14,7.86
11.144,7.872
11.148,7.972
11.152,8.056
11.156,7.996
11.16,7.876
11.164,7.896
11.168,7.904
11.172,7.8
11.176,7.872
11.18,7.864
11.184,7.852
11.188,7.948
11.192,8.052
11.196,7.968
11.2,7.928
11.204,7.888
11.208,7.776
11.212,7.808
11.216,7.92
11.22,7.924
11.224,7.852
11.228,7.856
11.232,7.84
11.236,7.832
11.24,7.744
11.244,7.8
11.248,7.932
11.252,8.036
11.256,7.812
11.26,7.76
11.264,7.816
11.268,7.86
11.272,7.82
11.276,7.912
11.28,7.968
11.284,7.836
11.288,7.716
11.292,7.764
11.296,7.864
11.3,7.876
11.304,7.86
11.308,7.8
11.312,7.868
11.316,7.92
11.32,7.86
11.324,7.752
11.328,7.72
11.332,7.808
11.336,7.824
11.34,7.808
11.344,7.896
11.348,7.94
11.352,7.884
11.356,7.764
11.36,7.808
11.364,7.768
11.368,7.784
11.372,7.78
11.376,7.808
11.38,7.88
11.384,7.908
11.388,7.872
11.392,7.824
11.396,7.784
11.4,7.764
11.404,7.824
11.408,7.864
11.412,7.9
11.416,7.772
11.42,7.68
11.424,7.72
11.428,7.84
11.432,7.904
11.436,7.812
11.44,7.992
11.444,7.996
11.448,7.884
11.452,7.836
11.456,7.672
11.46,7.712
11.464,7.82
11.468,7.784
11.472,7.804
11.476,7.888
11.48,7.952
11.484,7.996
11.488,8.052
11.492,8.084
11.496,8.152
11.5,7.976
11.504,7.852
11.508,7.908
11.512,8.084
11.516,8.124
11.52,8.056
11.524,7.916
11.528,7.864
11.532,7.804
11.536,7.796
11.54,7.884
11.544,7.872
11.548,7.892
11.552,7.876
11.556,7.808
11.56,7.74
11.564,7.8
11.568,7.74
11.572,7.74
11.576,7.82
11.58,7.892
11.584,7.964
11.588,7.956
11.592,7.98
11.596,7.692
11.6,7.632
11.604,7.764
11.608,7.78
11.612,7.72
11.616,7.812
11.62,7.74
11.624,7.756
11.628,7.772
11.632,7.784
11.636,7.852
11.64,7.924
11.644,7.84
11.648,7.744
11.652,7.832
11.656,7.984
11.66,7.968
11.664,7.876
11.668,7.844
11.672,7.652
11.676,7.52
11.68,7.732
11.684,8.192
11.688,9
11.692,10.312
11.696,11.736
11.7,13.132
11.704,13.672
11.708,12.588
11.712,10.768
11.716,8.828
11.72,7.8
11.724,7.752
11.728,7.696
11.732,7.856
11.736,8.084
11.74,8.136
11.744,8.108
11.748,8.004
11.752,7.944
11.756,7.964
11.76,7.968
11.764,8.096
11.768,8.156
11.772,8.072
11.776,8.02
11.78,8.092
11.784,7.98
11.788,7.98
11.792,8.08
11.796,8.06
11.8,8.036
11.804,7.98
11.808,7.916
11.812,7.972
11.816,8.076
11.82,8.164
11.824,8.164
11.828,8.196
11.832,8.172
11.836,8.1
11.84,8.2
11.844,8.348
11.848,8.124
11.852,7.948
11.856,7.964
11.86,8.056
11.864,8.332
11.868,8.42
11.872,8.184
11.876,8.132
11.88,8.228
11.884,8.252
11.888,8.456
11.892,8.348
11.896,8.296
11.9,8.344
11.904,8.356
11.908,8.34
11.912,8.452
11.916,8.464
11.92,8.36
11.924,8.432
11.928,8.624
11.932,8.84
11.936,8.796
11.94,8.832
11.944,8.852
11.948,9.116
11.952,9.08
11.956,8.98
11.96,9.012
11.964,9.22
11.968,9.384
11.972,9.272
11.976,9.212
11.98,9.28
11.984,9.312
11.988,9.364
11.992,9.288
11.996,9.064
12,8.9
12.004,8.832
12.008,8.904
12.012,8.796
12.016,8.456
12.02,8.264
12.024,8.268
12.028,8.332
12.032,8.324
12.036,8.22
12.04,8.088
12.044,8.004
12.048,7.976
12.052,7.968
12.056,7.964
12.06,7.964
12.064,7.972
12.068,8.152
12.072,8.048
12.076,7.852
12.08,7.808
12.084,7.792
12.088,7.94
12.092,7.944
12.096,7.916
12.1,7.94
12.104,7.852
12.108,7.92
12.112,7.944
12.116,7.868
12.12,7.836
12.124,8.012
12.128,8.112
12.132,7.996
12.136,7.936
12.14,8.02
12.144,7.976
12.148,7.808
12.152,7.736
12.156,7.804
12.16,7.956
12.164,7.98
12.168,7.888
12.172,7.872
12.176,7.936
12.18,7.964
12.184,7.94
12.188,7.848
12.192,7.988
12.196,8.052
12.2,7.936
12.204,7.876
12.208,7.828
12.212,7.872
12.216,7.928
12.22,7.84
12.224,7.808
12.228,7.872
12.232,7.88
12.236,7.776
12.24,7.82
12.244,8
12.248,7.972
12.252,7.996
12.256,7.968
12.26,7.9
12.264,7.904
12.268,7.932
12.272,7.836
12.276,7.832
12.28,7.896
12.284,7.984
12.288,7.868
12.292,7.768
12.296,7.804
12.3,7.78
12.304,7.84
12.308,7.916
12.312,7.968
12.316,7.904
12.32,7.808
12.324,7.844
12.328,7.848
12.332,7.916
12.336,7.956
12.34,7.884
12.344,7.764
12.348,7.788
12.352,7.804
12.356,7.84
12.36,7.896
12.364,8
12.368,7.908
12.372,7.872
12.376,7.944
12.38,7.876
12.384,7.8
12.388,7.788
12.392,7.74
12.396,7.804
12.4,7.924
12.404,7.996
12.408,7.96
12.412,7.888
12.416,7.864
12.42,7.836
12.424,7.808
12.428,7.776
12.432,7.884
12.436,7.812
12.44,7.82
12.444,7.904
12.448,7.912
12.452,7.932
12.456,7.828
12.46,7.728
12.464,7.828
12.468,7.9
12.472,7.916
12.476,7.948
12.48,7.972
12.484,7.832
12.488,7.76
12.492,7.816
12.496,7.868
12.5,7.792
12.504,7.804
12.508,7.916
12.512,8.016
12.516,7.94
12.52,7.748
12.524,7.716
12.528,7.844
12.532,7.928
12.536,7.876
12.54,7.9
12.544,8.044
12.548,7.992
12.552,7.732
12.556,7.736
12.56,7.748
12.564,7.784
12.568,7.904
12.572,7.94
12.576,7.908
12.58,7.844
12.584,7.808
12.588,7.804
12.592,7.832
12.596,7.956
12.6,8.032
12.604,7.976
12.608,7.868
12.612,7.868
12.616,7.78
12.62,7.772
12.624,7.844
12.628,7.972
12.632,8.016
12.636,7.964
12.64,8.032
12.644,8.036
12.648,7.904
12.652,7.872
12.656,7.9
12.66,7.892
12.664,7.992
12.668,8.08
12.672,8.2
12.676,8.164
12.68,8.04
12.684,7.96
12.688,7.932
12.692,8.032
12.696,8.292
12.7,8.164
12.704,7.936
12.708,7.784
12.712,7.936
12.716,8.052
12.72,7.944
12.724,7.964
12.728,8.048
12.732,7.92
12.736,7.808
12.74,7.792
12.744,7.896
12.748,8.036
12.752,8.048
12.756,7.892
12.76,7.74
12.764,7.784
12.768,7.836
12.772,7.816
12.776,7.744
12.78,7.92
12.784,7.912
12.788,7.848
12.792,7.852
12.796,7.988
12.8,7.896
12.804,7.824
12.808,7.968
12.812,7.924
12.816,7.764
12.82,7.808
12.824,7.86
12.828,7.9
12.832,7.9
12.836,7.872
12.84,7.836
12.844,7.724
12.848,7.648
12.852,7.732
12.856,8.052
12.86,8.512
12.864,9.52
12.868,11.008
12.872,12.28
12.876,13.576
12.88,13.576
12.884,12.072
12.888,9.88
12.892,8.38
12.896,7.828
12.9,7.672
12.904,7.644
12.908,7.88
12.912,8.236
12.916,8.272
12.92,8.108
12.924,8.088
12.928,8.236
12.932,8.192
12.936,7.972
12.94,8
12.944,8.108
12.948,7.932
12.952,7.992
12.956,8.084
12.96,8.052
12.964,8.012
12.968,7.98
12.972,8.076
12.976,8.244
12.98,8.296
12.984,8.028
12.988,7.9
12.992,8.084
12.996,8.3
13,8.232
13.004,8.16
13.008,8.248
13.012,8.12
13.016,7.992
13.02,7.956
13.024,8.04
13.028,8.164
13.032,8.244
13.036,8.368
13.04,8.328
13.044,8.244
13.048,8.248
13.052,8.272
13.056,8.316
13.06,8.348
13.064,8.496
13.068,8.388
13.072,8.324
13.076,8.432
13.08,8.36
13.084,8.44
13.088,8.576
13.092,8.624
13.096,8.548
13.1,8.464
13.104,8.532
13.108,8.68
13.112,8.828
13.116,8.948
13.12,8.936
13.124,8.916
13.128,8.98
13.132,9.22
13.136,9.22
13.14,9.304
13.144,9.46
13.148,9.424
13.152,9.316
13.156,9.468
13.16,9.532
13.164,9.296
13.168,9.128
13.172,9.072
13.176,9.12
13.18,9.092
13.184,8.82
13.188,8.628
13.192,8.612
13.196,8.592
13.2,8.56
13.204,8.584
13.208,8.364
13.212,8.232
13.216,8.116
13.22,8.068
13.224,8.1
13.228,8.148
13.232,8.064
13.236,8.12
13.24,8.032
13.244,7.944
13.248,7.968
13.252,7.968
13.256,8.056
13.26,8.024
13.264,7.928
13.268,8.02
13.272,7.972
13.276,7.98
13.28,7.984
13.284,8.104
13.288,8.068
13.292,8.056
13.296,8.02
13.3,7.948
13.304,7.996
13.308,7.968
13.312,7.904
13.316,7.932
13.32,7.988
13.324,7.96
13.328,7.892
13.332,7.984
13.336,7.964
13.34,7.96
13.344,8.012
13.348,8.004
13.352,7.932
13.356,7.864
13.36,7.964
13.364,8.084
13.368,8.06
13.372,8.004
13.376,7.908
13.38,7.832
13.384,7.864
13.388,7.916
13.392,7.992
13.396,8.06
13.4,8.004
13.404,8.008
13.408,8.028
13.412,8.06
13.416,7.904
13.42,7.752
13.424,7.86
13.428,7.984
13.432,7.996
13.436,7.972
13.44,7.916
13.444,7.852
13.448,7.988
13.452,7.976
13.456,7.844
13.46,7.876
13.464,7.86
13.468,7.82
13.472,7.84
13.476,7.952
13.48,8.008
13.484,7.968
13.488,7.884
13.492,7.836
13.496,7.884
13.5,7.824
13.504,7.836
13.508,7.9
13.512,7.828
13.516,7.896
13.52,7.908
13.524,7.932
13.528,7.94
13.532,7.92
13.536,7.72
13.54,7.764
13.544,7.828
13.548,7.848
13.552,7.936
13.556,7.928
13.56,7.936
13.564,7.912
13.568,7.708
13.572,7.74
13.576,7.98
13.58,8.064
13.584,7.88
13.588,7.764
13.592,7.864
13.596,7.916
13.6,7.968
13.604,8.008
13.608,7.8
13.612,7.78
13.616,7.8
13.62,7.78
13.624,7.84
13.628,7.872
13.632,7.868
13.636,7.88
13.64,7.804
13.644,7.8
13.648,7.836
13.652,8.008
13.656,7.984
13.66,7.968
13.664,7.952
13.668,7.816
13.672,7.8
13.676,7.832
13.68,7.884
13.684,7.964
13.688,7.92
13.692,7.944
13.696,7.864
13.7,7.792
13.704,7.848
13.708,7.828
13.712,7.888
13.716,7.94
13.72,7.84
13.724,7.872
13.728,8.016
13.732,8.184
13.736,8.252
13.74,8.084
13.744,8
13.748,7.924
13.752,7.916
13.756,7.904
13.76,8.04
13.764,8.176
13.768,8.128
13.772,8.148
13.776,8.12
13.78,8.048
13.784,7.848
13.788,7.772
13.792,7.872
13.796,8.012
13.8,7.924
13.804,7.892
13.808,7.92
13.812,7.936
13.816,7.924
13.82,7.8
13.824,7.7
13.828,7.7
13.832,7.74
13.836,7.828
13.84,7.84
13.844,8.004
13.848,8.004
13.852,7.936
13.856,7.924
13.86,7.888
13.864,7.768
13.868,7.668
13.872,7.788
13.876,8
13.88,8.048
13.884,7.808
13.888,7.752
13.892,7.788
13.896,7.864
13.9,7.856
13.904,7.94
13.908,8.008
13.912,7.9
13.916,7.896
13.92,7.72
13.924,7.616
13.928,7.648
13.932,7.736
13.936,8.172
13.94,9.048
13.944,10.568
13.948,12.04
13.952,13.236
13.956,13.692
13.96,12.632
13.964,10.596
13.968,8.612
13.972,7.864
13.976,7.756
13.98,7.86
13.984,7.86
13.988,7.928
13.992,8.116
13.996,8.16
14,8.124
14.004,7.98
14.008,7.9
14.012,7.98
14.016,8.04
14.02,8.096
14.024,8.116
14.028,8.068
14.032,8.192
14.036,8.144
14.04,8.036
14.044,8.024
14.048,8.192
14.052,8.156
14.056,8.06
14.06,8.016
14.064,8.08
14.068,8.228
14.072,8.268
14.076,8.216
14.08,8.172
14.084,8.024
14.088,8.1
14.092,8.156
14.096,8.224
14.1,8.156
14.104,8.092
14.108,8.156
14.112,8.38
14.116,8.396
14.12,8.208
14.124,8.124
14.128,8.324
14.132,8.48
14.136,8.576
14.14,8.532
14.144,8.452
14.148,8.336
14.152,8.224
14.156,8.272
14.16,8.396
14.164,8.652
14.168,8.644
14.172,8.656
14.176,8.652
14.18,8.752
14.184,8.744
14.188,8.776
14.192,8.884
14.196,8.976
14.2,8.976
14.204,9.152
14.208,9.268
14.212,9.284
14.216,9.324
14.22,9.48
14.224,9.572
14.228,9.504
14.232,9.3
14.236,9.316
14.24,9.392
14.244,9.396
14.248,9.12
14.252,8.976
14.256,8.844
14.26,8.788
14.264,8.712
14.268,8.572
14.272,8.46
14.276,8.38
14.28,8.48
14.284,8.504
14.288,8.448
14.292,8.276
14.296,8.02
14.3,7.872
14.304,7.968
14.308,8
14.312,8.032
14.316,8.052
14.32,7.924
14.324,7.9
14.328,7.988
14.332,8.044
14.336,8.012
14.34,7.872
14.344,7.884
14.348,7.916
14.352,7.92
14.356,8.028
14.36,8.1
14.364,8.228
14.368,8.152
14.372,7.848
14.376,7.796
14.38,7.916
14.384,7.956
14.388,7.94
14.392,8.044
14.396,8.064
14.4,7.88
14.404,7.82
14.408,7.824
14.412,7.924
14.416,8.02
14.42,7.98
14.424,7.86
14.428,8.012
14.432,7.984
14.436,7.992
14.44,7.972
14.444,7.964
14.448,8.16
14.452,8.08
14.456,7.9
14.46,7.988
14.464,8.024
14.468,7.944
14.472,7.944
14.476,7.972
14.48,7.976
14.484,7.876
14.488,7.828
14.492,7.92
14.496,8.008
14.5,7.912
14.504,7.876
14.508,7.848
14.512,7.924
14.516,7.952
14.52,7.88
14.524,7.852
14.528,7.948
14.532,7.972
14.536,7.976
14.54,7.972
14.544,7.952
14.548,7.852
14.552,7.804
14.556,7.856
14.56,7.984
14.564,7.948
14.568,7.808
14.572,7.792
14.576,7.856
14.58,7.92
14.584,7.908
14.588,7.884
14.592,7.792
14.596,7.764
14.6,7.82
14.604,7.96
14.608,8.108
14.612,7.932
14.616,7.768
14.62,7.8
14.624,7.956
14.628,8.012
14.632,7.904
14.636,7.796
14.64,7.872
14.644,7.872
14.648,7.836
14.652,7.884
14.656,7.888
14.66,7.852
14.664,7.952
14.668,7.912
14.672,7.836
14.676,7.92
14.68,7.936
14.684,7.88
14.688,7.776
14.692,7.76
14.696,7.924
14.7,7.944
14.704,7.808
14.708,7.944
14.712,8.02
14.716,7.896
14.72,7.72
14.724,7.768
14.728,7.948
14.732,7.944
14.736,7.876
14.74,7.968
14.744,7.888
14.748,7.908
14.752,7.988
14.756,7.944
14.76,8.02
14.764,8.012
14.768,8.084
14.772,8.172
14.776,8.084
14.78,7.972
14.784,8.012
14.788,7.992
14.792,8.028
14.796,8.028
14.8,7.9
14.804,7.924
14.808,7.952
14.812,8.032
14.816,8.044
14.82,7.932
14.824,7.828
14.828,7.872
14.832,7.852
14.836,7.832
14.84,7.884
14.844,7.9
14.848,7.868
14.852,7.868
14.856,7.872
14.86,7.936
14.864,7.852
14.868,7.784
14.872,7.736
14.876,7.764
14.88,7.828
14.884,7.888
14.888,7.936
14.892,7.844
14.896,7.86
14.9,7.88
14.904,7.86
14.908,7.852
14.912,7.908
14.916,7.872
14.92,7.844
14.924,7.924
14.928,7.832
14.932,8.104
14.936,8.06
14.94,7.832
14.944,7.724
14.948,7.66
14.952,7.652
14.956,7.76
14.96,7.972
14.964,8.464
14.968,9.664
14.972,11.092
14.976,12.472
14.98,13.48
14.984,13.328
14.988,11.996
14.992,9.728
14.996,8.012
15,7.6
15.004,7.564
15.008,7.744
15.012,7.756
15.016,7.892
15.02,8.136
15.024,8.236
15.028,8.252
15.032,8.152
15.036,8.032
15.04,7.984
15.044,7.932
15.048,7.984
15.052,8.092
15.056,8.192
15.06,8.08
15.064,8.148
15.068,8.128
15.072,8.072
15.076,8.136
15.08,8.136
15.084,8.192
15.088,8.096
15.092,8.176
15.096,8.324
15.1,8.22
15.104,8.108
15.108,8.032
15.112,8.068
15.116,8.152
15.12,8.228
15.124,8.344
15.128,8.32
15.132,8.3
15.136,8.264
15.14,8.144
15.144,8.3
15.148,8.408
15.152,8.296
15.156,8.284
15.16,8.472
15.164,8.556
15.168,8.48
15.172,8.312
15.176,8.368
15.18,8.46
15.184,8.48
15.188,8.504
15.192,8.628
15.196,8.676
15.2,8.716
15.204,8.728
15.208,8.7
15.212,8.776
15.216,8.972
15.22,8.976
15.224,9.092
15.228,9.284
15.232,9.232
15.236,9.176
15.24,9.264
15.244,9.424
15.248,9.556
15.252,9.448
15.256,9.308
15.26,9.344
15.264,9.392
15.268,9.32
15.272,9.06
15.276,8.964
15.28,8.872
15.284,8.848
15.288,8.876
15.292,8.836
15.296,8.712
15.3,8.464
15.304,8.208
15.308,8.192
15.312,8.332
15.316,8.252
15.32,8.14
15.324,7.94
15.328,7.964
15.332,8.06
15.336,7.964
15.34,7.924
15.344,7.964
15.348,8.032
15.352,8.1
15.356,8.056
15.36,8.032
15.364,8.048
15.368,8.004
15.372,7.976
15.376,8.008
15.38,8.14
15.384,8.104
15.388,7.9
15.392,7.792
15.396,7.892
15.4,7.956
15.404,7.96
15.408,7.948
15.412,8.004
15.416,8
15.42,7.968
15.424,8.02
15.428,7.948
15.432,7.876
15.436,7.976
15.44,7.956
15.444,7.92
15.448,7.992
15.452,8.052
15.456,8
15.46,7.96
15.464,8.004
15.468,8.064
15.472,7.948
15.476,8.028
15.48,8.164
15.484,8.052
15.488,7.96
15.492,7.928
15.496,7.892
15.5,7.808
15.504,7.996
15.508,8.16
15.512,8.028
15.516,7.884
15.52,7.884
15.524,7.94
15.528,8.064
15.532,8.072
15.536,7.92
15.54,7.828
15.544,7.996
15.548,8.14
15.552,8.036
15.556,7.808
15.56,7.76
15.564,7.968
15.568,7.956
15.572,7.912
15.576,7.96
15.58,8.004
15.584,7.996
15.588,7.94
15.592,7.828
15.596,7.896
15.6,8.02
15.604,8.076
15.608,8.028
15.612,7.98
15.616,7.864
15.62,7.836
15.624,7.9
15.628,7.996
15.632,8.024
15.636,7.908
15.64,7.928
15.644,7.964
15.648,7.92
15.652,7.944
15.656,7.928
15.66,7.96
15.664,7.904
15.668,7.864
15.672,7.932
15.676,8.016
15.68,8.052
15.684,7.96
15.688,7.9
15.692,7.924
15.696,8.016
15.7,8.036
15.704,7.896
15.708,8.08
15.712,8.008
15.716,7.82
15.72,7.892
15.724,7.88
15.728,7.9
15.732,7.932
15.736,8.044
15.74,8.068
15.744,7.948
15.748,7.816
15.752,7.912
15.756,8.064
15.76,8.1
15.764,7.964
15.768,7.86
15.772,7.848
15.776,7.952
15.78,8.032
15.784,8.052
15.788,7.948
15.792,7.992
15.796,7.98
15.8,8.076
15.804,8.072
15.808,8.228
15.812,8.212
15.816,8.06
15.82,7.948
15.824,7.976
15.828,8.152
15.832,8.164
15.836,8.096
15.84,8.112
15.844,8.104
15.848,8.148
15.852,8.16
15.856,8.02
15.86,7.968
15.864,8.036
15.868,7.976
15.872,8.008
15.876,8.004
15.88,7.916
15.884,7.8
15.888,7.808
15.892,7.888
15.896,7.94
15.9,7.908
15.904,7.856
15.908,7.904
15.912,8.024
15.916,8.012
15.92,7.908
15.924,7.8
15.928,7.988
15.932,8.124
15.936,7.976
15.94,7.78
15.944,7.74
15.948,7.836
15.952,7.872
15.956,7.848
15.96,7.992
15.964,8.072
15.968,7.988
15.972,7.916
15.976,7.94
15.98,7.92
15.984,7.992
15.988,7.876
15.992,7.9
15.996,7.78
16,7.676
16.004,7.776
16.008,8.056
16.012,8.924
16.016,10.296
16.02,11.744
16.024,13.012
16.028,13.764
16.032,13.012
16.036,11.212
16.04,9.096
16.044,7.936
16.048,7.86
16.052,7.836
16.056,7.768
16.06,7.984
16.064,8.244
16.068,8.2
16.072,8.172
16.076,8.144
16.08,8.144
16.084,8.22
16.088,8.272
16.092,8.272
16.096,8.076
16.1,7.892
16.104,7.932
16.108,8.084
16.112,8.168
16.116,8.148
16.12,8.016
16.124,7.996
16.128,8.116
16.132,8.16
16.136,8.184
16.14,8.276
16.144,8.272
16.148,8.204
16.152,8.292
16.156,8.272
16.16,8.072
16.164,8.08
16.168,8.156
16.172,8.16
16.176,8.2
16.18,8.2
16.184,8.204
16.188,8.24
16.192,8.34
16.196,8.364
16.2,8.308
16.204,8.376
16.208,8.344
16.212,8.424
16.216,8.416
16.22,8.276
16.224,8.352
16.228,8.404
16.232,8.512
16.236,8.512
16.24,8.592
16.244,8.588
16.248,8.52
16.252,8.54
16.256,8.632
16.26,8.784
16.264,9.104
16.268,9.16
16.272,8.98
16.276,8.94
16.28,9.012
16.284,9.144
16.288,9.264
16.292,9.372
16.296,9.424
16.3,9.464
16.304,9.48
16.308,9.428
16.312,9.272
16.316,9.268
16.32,9.264
16.324,9.148
16.328,8.952
16.332,8.856
16.336,8.84
16.34,8.596
16.344,8.428
16.348,8.296
16.352,8.32
16.356,8.336
16.36,8.24
16.364,8.156
16.368,8.212
16.372,8.108
16.376,8.116
16.38,8.24
16.384,8.104
16.388,7.952
16.392,7.988
16.396,8.012
16.4,7.904
16.404,7.836
16.408,7.992
16.412,8.028
16.416,8.104
16.42,8.072
16.424,7.94
16.428,7.904
16.432,7.96
16.436,8.124
16.44,8.148
16.444,8.2
16.448,8.16
16.452,7.828
16.456,7.8
16.46,7.86
16.464,7.932
16.468,7.964
16.472,7.948
16.476,8.028
16.48,8.04
16.484,7.96
16.488,7.936
16.492,7.912
16.496,7.932
16.5,8.084
16.504,8.228
16.508,8.24
16.512,8.028
16.516,7.932
16.52,7.84
16.524,7.872
16.528,7.848
16.532,7.92
16.536,7.996
16.54,8.1
16.544,8.08
16.548,7.928
16.552,7.84
16.556,7.848
16.56,7.872
16.564,7.92
16.568,8.008
16.572,8.128
16.576,8.1
16.58,7.936
16.584,7.908
16.588,7.952
16.592,7.944
16.596,7.936
16.6,7.876
16.604,7.868
16.608,7.876
16.612,8.02
16.616,7.88
16.62,7.908
16.624,7.908
16.628,7.948
16.632,7.88
16.636,7.772
16.64,7.896
16.644,8.016
16.648,8.08
16.652,8.076
16.656,7.876
16.66,7.848
16.664,7.864
16.668,7.84
16.672,7.928
16.676,7.904
16.68,7.964
16.684,7.904
16.688,7.824
16.692,7.964
16.696,8.072
16.7,8
16.704,7.876
16.708,7.84
16.712,7.94
16.716,7.992
16.72,7.88
16.724,7.832
16.728,7.8
16.732,7.856
16.736,7.876
16.74,7.856
16.744,7.872
16.748,7.936
16.752,7.952
16.756,7.916
16.76,7.968
16.764,8.04
16.768,7.896
16.772,7.828
16.776,7.94
16.78,8.012
16.784,7.972
16.788,7.976
16.792,8.156
16.796,7.944
16.8,7.768
16.804,7.716
16.808,7.764
16.812,7.82
16.816,7.856
16.82,7.94
16.824,8.076
16.828,8.072
16.832,7.836
16.836,7.796
16.84,7.952
16.844,8.04
16.848,7.948
16.852,8.02
16.856,7.956
16.86,7.948
16.864,7.788
16.868,7.748
16.872,7.816
16.876,7.932
16.88,7.996
16.884,7.932
16.888,7.948
16.892,7.928
16.896,7.856
16.9,7.784
16.904,7.904
16.908,7.924
16.912,7.88
16.916,8.004
16.92,7.86
16.924,7.872
16.928,7.912
16.932,7.968
16.936,8.04
16.94,8.1
16.944,7.94
16.948,7.884
16.952,7.792
16.956,7.784
16.96,7.964
16.964,8.048
16.968,8.096
16.972,7.924
16.976,7.844
16.98,7.824
16.984,7.864
16.988,7.94
16.992,7.92
16.996,7.808
17,7.828
17.004,7.924
17.008,8.072
17.012,8.068
17.016,7.932
17.02,7.844
17.024,7.796
17.028,7.812
17.032,7.9
17.036,7.916
17.04,7.92
17.044,8.032
17.048,7.96
17.052,7.916
17.056,7.9
17.06,8
17.064,8.084
17.068,8.148
17.072,8.176
17.076,8.216
17.08,8.112
17.084,8.056
17.088,8.128
17.092,8.2
17.096,8.24
17.1,8.116
17.104,8.028
17.108,8
17.112,7.936
17.116,7.864
17.12,7.884
17.124,7.9
17.128,7.976
17.132,8.016
17.136,7.912
17.14,7.912
17.144,7.996
17.148,8.06
17.152,7.796
17.156,7.712
17.16,7.84
17.164,7.948
17.168,7.996
17.172,8.048
17.176,7.948
17.18,7.812
17.184,7.672
17.188,7.716
17.192,7.864
17.196,7.96
17.2,7.968
17.204,7.868
17.208,7.84
17.212,7.868
17.216,7.892
17.22,7.848
17.224,7.86
17.228,7.928
17.232,7.964
17.236,7.996
17.24,8.084
17.244,7.956
17.248,7.728
17.252,7.6
17.256,7.644
17.26,7.876
17.264,8.6
17.268,9.688
17.272,11.072
17.276,12.512
17.28,13.568
17.284,13.312
17.288,11.888
17.292,9.692
17.296,8.188
17.3,7.756
17.304,7.772
17.308,7.92
17.312,8.108
17.316,8.18
17.32,8.072
17.324,8.016
17.328,8.1
17.332,8.084
17.336,8.096
17.34,8.2
17.344,8.024
17.348,7.992
17.352,7.98
17.356,8.016
17.36,8.108
17.364,8.12
17.368,8.104
17.372,8
17.376,8.02
17.38,8.136
17.384,8.216
17.388,8.132
17.392,8.04
17.396,8.128
17.4,8.024
17.404,8.044
17.408,8.092
17.412,8.136
17.416,8.188
17.42,8.164
17.424,8.244
17.428,8.256
17.432,8.232
17.436,8.184
17.44,8.188
17.444,8.168
17.448,8.168
17.452,8.212
17.456,8.228
17.46,8.3
17.464,8.468
17.468,8.496
17.472,8.352
17.476,8.184
17.48,8.264
17.484,8.344
17.488,8.456
17.492,8.52
17.496,8.48
17.5,8.488
17.504,8.552
17.508,8.668
17.512,8.788
17.516,8.792
17.52,8.8
17.524,8.896
17.528,8.972
17.532,8.944
17.536,8.948
17.54,9.124
17.544,9.288
17.548,9.372
17.552,9.292
17.556,9.232
17.56,9.348
17.564,9.372
17.568,9.364
17.572,9.28
17.576,9.14
17.58,9.144
17.584,9.048
17.588,8.944
17.592,8.796
17.596,8.608
17.6,8.42
17.604,8.376
17.608,8.38
17.612,8.348
17.616,8.32
17.62,8.304
17.624,8.184
17.628,8.088
17.632,8.104
17.636,8.076
17.64,8.028
17.644,7.944
17.648,7.98
17.652,8.04
17.656,7.916
17.66,7.948
17.664,8.028
17.668,8
17.672,7.888
17.676,7.9
17.68,7.956
17.684,7.98
17.688,8.02
17.692,7.944
17.696,8
17.7,8.092
17.704,8.024
17.708,7.94
17.712,7.984
17.716,8.048
17.72,8.02
17.724,7.976
17.728,8.032
17.732,8.12
17.736,8.024
17.74,7.912
17.744,7.932
17.748,7.936
17.752,7.916
17.756,7.816
17.76,7.88
17.764,7.912
17.768,7.884
17.772,7.856
17.776,7.916
17.78,8.056
17.784,8.048
17.788,8.028
17.792,7.928
17.796,7.924
17.8,7.94
17.804,8
17.808,7.908
17.812,7.98
17.816,8.064
17.82,8.06
17.824,8.02
17.828,8.108
17.832,7.992
17.836,7.784
17.84,7.764
17.844,7.82
17.848,7.864
17.852,7.892
17.856,7.884
17.86,8.004
17.864,8.032
17.868,7.908
17.872,7.824
17.876,7.836
17.88,7.884
17.884,7.96
17.888,7.888
17.892,7.876
17.896,7.98
17.9,8.036
17.904,8.016
17.908,7.992
17.912,7.976
17.916,7.92
17.92,7.86
17.924,7.74
17.928,7.924
17.932,8.016
17.936,7.92
17.94,7.84
17.944,7.788
17.948,7.852
17.952,7.936
17.956,7.856
17.96,7.896
17.964,7.928
17.968,7.96
17.972,7.948
17.976,7.912
17.98,7.94
17.984,8
17.988,8.044
17.992,8.112
17.996,7.968
18,7.732
18.004,7.74
18.008,7.82
18.012,7.952
18.016,8.028
18.02,7.888
18.024,7.772
18.028,7.812
18.032,7.828
18.036,7.892
18.04,7.892
18.044,7.956
18.048,7.984
18.052,7.876
18.056,7.812
18.06,7.936
18.064,7.952
18.068,7.984
18.072,7.992
18.076,8
18.08,8.068
18.084,7.968
18.088,7.732
18.092,7.768
18.096,7.908
18.1,7.992
18.104,7.956
18.108,7.944
18.112,7.808
18.116,7.808
18.12,7.86
18.124,7.78
18.128,7.856
18.132,8.036
18.136,7.88
18.14,7.92
18.144,7.976
18.148,7.852
18.152,7.768
18.156,7.82
18.16,7.928
18.164,8.016
18.168,8.024
18.172,7.972
18.176,7.932
18.18,7.952
18.184,7.912
18.188,7.864
18.192,7.956
18.196,8.104
18.2,7.88
18.204,7.82
18.208,7.964
18.212,8.22
18.216,8.284
18.22,8.068
18.224,7.956
18.228,8.008
18.232,8.108
18.236,8.028
18.24,8.024
18.244,8.08
18.248,8.032
18.252,7.976
18.256,8.028
18.26,8.012
18.264,8
18.268,8.04
18.272,8.084
18.276,7.996
18.28,7.816
18.284,7.744
18.288,7.784
18.292,7.836
18.296,7.876
18.3,7.86
18.304,7.856
18.308,7.872
18.312,7.876
18.316,7.948
18.32,7.88
18.324,7.808
18.328,7.856
18.332,7.984
18.336,7.96
18.34,7.916
18.344,7.98
18.348,7.924
18.352,7.816
18.356,7.812
18.36,7.916
18.364,7.852
18.368,7.78
18.372,7.808
18.376,7.916
18.38,7.984
18.384,7.884
18.388,7.868
18.392,7.924
18.396,7.916
18.4,7.8
18.404,7.716
18.408,7.764
18.412,8.196
18.416,8.988
18.42,10.24
18.424,11.68
18.428,12.984
18.432,13.636
18.436,12.796
18.44,10.912
18.444,8.844
18.448,7.904
18.452,7.804
18.456,7.896
18.46,7.952
18.464,8.02
18.468,8.016
18.472,8.068
18.476,8.356
18.48,8.228
18.484,8.044
18.488,7.996
18.492,8.04
18.496,8.076
18.5,8.184
18.504,8.148
18.508,7.988
18.512,8.056
18.516,8.076
18.52,8.112
18.524,8.056
18.528,8.152
18.532,8.188
18.536,8.224
18.54,8.2
18.544,8.144
18.548,8.1
18.552,8.132
18.556,8.088
18.56,8.188
18.564,8.252
18.568,8.276
18.572,8.304
18.576,8.28
18.58,8.208
18.584,8.136
18.588,8.168
18.592,8.216
18.596,8.312
18.6,8.364
18.604,8.344
18.608,8.292
18.612,8.332
18.616,8.384
18.62,8.392
18.624,8.344
18.628,8.516
18.632,8.576
18.636,8.576
18.64,8.564
18.644,8.516
18.648,8.576
18.652,8.66
18.656,8.668
18.66,8.868
18.664,8.82
18.668,8.744
18.672,8.8
18.676,8.956
18.68,9.076
18.684,9.156
18.688,9.228
18.692,9.224
18.696,9.416
18.7,9.552
18.704,9.476
18.708,9.496
18.712,9.492
18.716,9.488
18.72,9.432
18.724,9.272
18.728,9.104
18.732,8.864
18.736,8.796
18.74,8.876
18.744,8.772
18.748,8.552
18.752,8.488
18.756,8.356
18.76,8.332
18.764,8.276
18.768,8.224
18.772,8.18
18.776,8.228
18.78,8.236
18.784,8.172
18.788,8.084
18.792,7.992
18.796,7.912
18.8,8.008
18.804,8.144
18.808,8.188
18.812,8.044
18.816,7.952
18.82,7.98
18.824,7.98
18.828,8.116
18.832,8.128
18.836,7.964
18.84,7.988
18.844,8.124
18.848,8
18.852,7.92
18.856,7.9
18.86,8.024
18.864,8.132
18.868,8.004
18.872,8.012
18.876,7.984
18.88,8.004
18.884,8.016
18.888,8.028
18.892,7.984
18.896,7.928
18.9,7.96
18.904,8.052
18.908,8.276
18.912,8.236
18.916,8.032
18.92,7.888
18.924,7.848
18.928,8.008
18.932,8.068
18.936,8.1
18.94,8.052
18.944,8.004
18.948,8.016
18.952,7.988
18.956,7.904
18.96,7.964
18.964,8.1
18.968,8.056
18.972,7.944
18.976,8.068
18.98,8.208
18.984,7.996
18.988,7.912
18.992,7.876
18.996,7.972
19,8.076
19.004,7.98
19.008,7.872
19.012,7.98
19.016,7.94
19.02,7.948
19.024,7.96
19.028,8.032
19.032,8.004
19.036,7.94
19.04,7.968
19.044,7.984
19.048,7.972
19.052,7.928
19.056,8.04
19.06,8.168
19.064,8.228
19.068,8.052
19.072,7.988
19.076,7.92
19.08,7.828
19.084,7.8
19.088,7.912
19.092,7.92
19.096,7.948
19.1,7.944
19.104,8
19.108,7.972
19.112,8.008
19.116,8.008
19.12,7.984
19.124,7.92
19.128,8.06
19.132,8.092
19.136,8.072
19.14,8.096
19.144,8.176
19.148,7.884
19.152,7.776
19.156,7.812
19.16,7.972
19.164,7.952
19.168,7.912
19.172,7.852
19.176,7.896
19.18,8.08
19.184,8.088
19.188,7.916
19.192,7.964
19.196,8.04
19.2,8.056
19.204,8.008
19.208,7.928
19.212,8.048
19.216,7.912
19.22,7.864
19.224,7.92
19.228,8.004
19.232,7.912
19.236,7.872
19.24,8.056
19.244,8.124
19.248,8.092
19.252,7.9
19.256,7.844
19.26,8.044
19.264,8.092
19.268,8.1
19.272,8.092
19.276,8.004
19.28,8.06
19.284,8.028
19.288,7.98
19.292,8.08
19.296,8.188
19.3,8.108
19.304,8.24
19.308,8.212
19.312,8.184
19.316,7.98
19.32,7.932
19.324,7.972
19.328,8.064
19.332,8.024
19.336,8.052
19.34,8.32
19.344,8.152
19.348,7.856
19.352,7.804
19.356,7.816
19.36,7.896
19.364,7.992
19.368,7.988
19.372,7.972
19.376,7.96
19.38,7.992
19.384,8.06
19.388,7.96
19.392,7.876
19.396,7.848
19.4,7.896
19.404,8.04
19.408,7.96
19.412,8.068
19.416,8.032
19.42,7.944
19.424,7.864
19.428,7.844
19.432,7.884
19.436,7.924
19.44,8.04
19.444,8.096
19.448,8.056
19.452,7.976
19.456,7.992
19.46,8.032
19.464,8.096
19.468,8.112
19.472,7.792
19.476,7.676
19.48,7.832
19.484,8.22
19.488,9.08
19.492,10.532
19.496,12
19.5,13.304
19.504,13.788
19.508,12.832
19.512,10.888
19.516,8.748
19.52,7.832
19.524,7.936
19.528,8.024
19.532,8.02
19.536,7.956
19.54,8.152
19.544,8.32
19.548,8.408
19.552,8.308
19.556,8.16
19.56,8.112
19.564,8.076
19.568,8.112
19.572,8.176
19.576,8.284
19.58,8.256
19.584,8.116
19.588,8.136
19.592,8.164
19.596,8.264
19.6,8.252
19.604,8.192
19.608,8.124
19.612,8.168
19.616,8.18
19.62,8.212
19.624,8.28
19.628,8.272
19.632,8.216
19.636,8.3
19.64,8.276
19.644,8.332
19.648,8.328
19.652,8.312
19.656,8.292
19.66,8.448
19.664,8.352
19.668,8.172
19.672,8.28
19.676,8.444
19.68,8.496
19.684,8.38
19.688,8.392
19.692,8.364
19.696,8.352
19.7,8.492
19.704,8.496
19.708,8.528
19.712,8.668
19.716,8.704
19.72,8.66
19.724,8.716
19.728,8.764
19.732,8.844
19.736,8.872
19.74,8.94
19.744,9.004
19.748,9.032
19.752,9.04
19.756,9.16
19.76,9.428
19.764,9.34
19.768,9.34
19.772,9.384
19.776,9.448
19.78,9.492
19.784,9.404
19.788,9.36
19.792,9.456
19.796,9.408
19.8,9.16
19.804,9.012
19.808,8.792
19.812,8.636
19.816,8.76
19.82,8.68
19.824,8.456
19.828,8.34
19.832,8.248
19.836,8.356
19.84,8.336
19.844,8.124
19.848,8.064
19.852,8.108
19.856,8.2
19.86,8.156
19.864,8.036
19.868,8
19.872,8.036
19.876,8.192
19.88,8.124
19.884,7.876
19.888,7.844
19.892,8.036
19.896,8.12
19.9,8.084
19.904,8.028
19.908,7.948
19.912,8.032
19.916,8.192
19.92,7.992
19.924,7.912
19.928,7.908
19.932,7.964
19.936,8.096
19.94,7.988
19.944,8.008
19.948,8.104
19.952,8.108
19.956,8.064
19.96,8.072
19.964,7.996
19.968,7.932
19.972,7.98
19.976,8.108
19.98,8.16
19.984,8.056
19.988,7.892
19.992,7.924
19.996,8.128
20,8.02
20.004,8.02
20.008,7.944
20.012,8.02
20.016,8.092
20.02,8.036
20.024,7.932
20.028,7.984
20.032,8.028
20.036,8.016
20.04,8.116
20.044,8.148
20.048,8
20.052,7.824
20.056,7.776
20.06,7.972
20.064,8.112
20.068,7.988
20.072,7.952
20.076,7.992
20.08,7.964
20.084,7.952
20.088,7.976
20.092,8.096
20.096,8.08
20.1,8.088
20.104,7.912
20.108,7.868
20.112,7.98
20.116,8.004
20.12,7.892
20.124,7.896
20.128,7.936
20.132,7.964
20.136,7.988
20.14,7.98
20.144,8
20.148,7.948
20.152,7.996
20.156,7.996
20.16,8.124
20.164,7.988
20.168,7.804
20.172,7.82
20.176,7.968
20.18,7.972
20.184,7.936
20.188,7.968
20.192,8.052
20.196,8.052
20.2,7.972
20.204,7.896
20.208,7.992
20.212,8.032
20.216,8.136
20.22,7.988
20.224,7.776
20.228,7.848
20.232,7.928
20.236,8.012
20.24,7.936
20.244,7.852
20.248,7.896
20.252,7.948
20.256,7.896
20.26,8.004
20.264,8.092
20.268,8.008
20.272,7.928
20.276,8.016
20.28,7.964
20.284,8.056
20.288,8.208
20.292,8.048
20.296,7.836
20.3,7.808
20.304,7.788
20.308,7.836
20.312,7.868
20.316,7.976
20.32,8.012
20.324,7.988
20.328,7.996
20.332,7.98
20.336,7.836
20.34,7.916
20.344,8.096
20.348,8.04
20.352,7.912
20.356,7.828
20.36,8
20.364,8.064
20.368,7.892
20.372,7.764
20.376,7.88
20.38,7.996
20.384,7.912
20.388,7.928
20.392,7.976
20.396,8.004
20.4,7.924
20.404,7.836
20.408,7.868
20.412,7.976
20.416,8.008
20.42,8.028
20.424,7.94
20.428,7.868
20.432,7.94
20.436,7.86
20.44,7.808
20.444,7.82
20.448,8.008
20.452,8.012
20.456,7.864
20.46,8.012
20.464,7.976
20.468,7.92
20.472,7.92
20.476,7.992
20.48,8.052
20.484,7.932
20.488,7.788
20.492,7.824
20.496,8.036
20.5,8.048
20.504,7.936
20.508,7.88
20.512,8.044
20.516,8.024
20.52,7.864
20.524,7.872
20.528,7.948
20.532,8.088
20.536,8.104
20.54,8.084
20.544,8.132
20.548,8.092
20.552,8.18
20.556,8.132
20.56,8.208
20.564,8.28
20.568,8.212
20.572,7.944
20.576,7.816
20.58,7.988
20.584,8.036
20.588,8.056
20.592,8.028
20.596,7.96
20.6,7.852
20.604,7.816
20.608,7.864
20.612,7.824
20.616,7.8
20.62,7.932
20.624,7.904
20.628,7.896
20.632,7.892
20.636,7.812
20.64,7.86
20.644,7.856
20.648,7.992
20.652,8.06
20.656,7.916
20.66,7.832
20.664,7.828
20.668,7.86
20.672,7.852
20.676,7.9
20.68,7.908
20.684,7.832
20.688,7.908
20.692,8.036
20.696,8.152
20.7,8.092
20.704,7.84
20.708,7.72
20.712,7.692
20.716,7.652
20.72,7.732
20.724,8.108
20.728,8.956
20.732,10.104
20.736,11.352
20.74,12.644
20.744,13.656
20.748,13.144
20.752,11.54
20.756,9.528
20.76,8.168
20.764,7.852
20.768,7.768
20.772,7.836
20.776,8.04
20.78,8.116
20.784,8.14
20.788,8.14
20.792,8.188
20.796,8.416
20.8,8.44
20.804,8.08
20.808,7.808
20.812,7.888
20.816,7.896
20.82,7.948
20.824,8.092
20.828,8.344
20.832,8.296
20.836,8.068
20.84,7.94
20.844,7.944
20.848,7.988
20.852,7.984
20.856,8.008
20.86,8.112
20.864,8.136
20.868,8.172
20.872,8.16
20.876,8.212
20.88,8.248
20.884,8.1
20.888,7.964
20.892,8.06
20.896,8.152
20.9,8.188
20.904,8.264
20.908,8.392
20.912,8.344
20.916,8.164
20.92,8.092
20.924,8.12
20.928,8.288
20.932,8.38
20.936,8.308
20.94,8.228
20.944,8.292
20.948,8.36
20.952,8.544
20.956,8.624
20.96,8.444
20.964,8.42
20.968,8.44
20.972,8.432
20.976,8.56
20.98,8.664
20.984,8.776
20.988,8.836
20.992,8.836
20.996,8.912
21,9.048
21.004,9.088
21.008,9.204
21.012,9.304
21.016,9.304
21.02,9.244
21.024,9.268
21.028,9.36
21.032,9.372
21.036,9.28
21.04,9.14
21.044,9.036
21.048,8.948
21.052,8.944
21.056,8.748
21.06,8.58
21.064,8.448
21.068,8.384
21.072,8.232
21.076,8.2
21.08,8.208
21.084,8.104
21.088,8.016
21.092,8.008
21.096,8
21.1,7.96
21.104,7.936
21.108,7.924
21.112,8.004
21.116,7.952
21.12,7.924
21.124,7.928
21.128,7.992
21.132,8.016
21.136,7.924
21.14,7.908
21.144,7.892
21.148,7.924
21.152,7.932
21.156,8.036
21.16,8.144
21.164,8.016
21.168,7.82
21.172,7.716
21.176,7.744
21.18,7.836
21.184,7.976
21.188,7.92
21.192,7.884
21.196,7.856
21.2,7.684
21.204,7.632
21.208,7.696
21.212,7.8
21.216,7.84
21.22,7.916
21.224,8.024
21.228,8.088
21.232,7.972
21.236,7.708
21.24,7.688
21.244,7.78
21.248,7.804
21.252,7.7
21.256,7.768
21.26,7.832
21.264,7.892
21.268,7.812
21.272,7.448
21.276,7.384
21.28,7.552
21.284,7.668
21.288,7.856
21.292,7.836
21.296,7.712
21.3,7.732
21.304,7.72
21.308,7.764
21.312,7.712
21.316,7.764
21.32,7.748
21.324,7.724
21.328,7.752
21.332,7.768
21.336,7.764
21.34,7.772
21.344,7.788
21.348,7.828
21.352,7.8
21.356,7.764
21.36,7.824
21.364,7.788
21.368,7.708
21.372,7.648
21.376,7.652
21.38,7.708
21.384,7.864
21.388,8
21.392,7.968
21.396,7.864
21.4,7.784
21.404,7.688
21.408,7.732
21.412,7.804
21.416,7.816
21.42,7.828
21.424,7.86
21.428,8.028
21.432,8.084
21.436,7.868
21.44,7.804
21.444,7.768
21.448,7.76
21.452,7.768
21.456,7.776
21.46,7.896
21.464,7.924
21.468,7.84
21.472,7.856
21.476,7.892
21.48,7.94
21.484,7.98
21.488,7.94
21.492,7.896
21.496,7.956
21.5,7.96
21.504,7.908
21.508,7.94
21.512,7.992
21.516,7.956
21.52,7.936
21.524,7.928
21.528,7.976
21.532,8.016
21.536,7.976
21.54,7.968
21.544,7.992
21.548,7.96
21.552,7.98
21.556,8.044
21.56,8.028
21.564,7.992
21.568,7.948
21.572,7.928
21.576,7.936
21.58,8.012
21.584,7.988
21.588,7.936
21.592,7.984
21.596,8.024
21.6,8.004
21.604,7.948
21.608,7.952
21.612,8.012
21.616,8
21.62,7.948
21.624,7.956
21.628,7.972
21.632,7.956
21.636,7.956
21.64,7.944
21.644,7.94
21.648,7.98
21.652,7.948
21.656,7.936
21.66,8
21.664,8
21.668,7.948
21.672,7.932
21.676,7.98
21.68,8.004
21.684,7.98
21.688,7.952
21.692,7.968
21.696,8.008
21.7,7.992
21.704,7.972
21.708,8.028
21.712,8.04
21.716,8.024
21.72,8.04
21.724,8.12
21.728,8.228
21.732,8.248
21.736,8.16
21.74,8.14
21.744,8.172
21.748,8.192
21.752,8.12
21.756,8.116
21.76,8.104
21.764,8.092
21.768,8.04
21.772,7.98
21.776,8.004
21.78,8.02
21.784,8.004
21.788,8.008
21.792,8.02
21.796,8.016
21.8,7.928
21.804,7.896
21.808,7.896
21.812,7.924
21.816,7.936
21.82,7.884
21.824,7.904
21.828,7.916
21.832,7.936
21.836,7.888
21.84,7.892
21.844,7.924
21.848,7.928
21.852,7.908
21.856,7.896
21.86,7.956
21.864,7.964
21.868,7.936
21.872,7.872
21.876,7.924
21.88,7.956
21.884,7.904
21.888,7.936
21.892,7.928
21.896,7.96
21.9,7.952
21.904,7.944
21.908,7.952
21.912,7.904
21.916,7.808
21.92,7.736
21.924,7.896
21.928,8.48
21.932,9.492
21.936,10.816
21.94,12.072
21.944,13.276
21.948,13.396
21.952,11.992
21.956,9.9
21.96,8.416
21.964,8.012
21.968,7.948
21.972,7.912
21.976,8.072
21.98,8.26
21.984,8.268
21.988,8.248
21.992,8.2
21.996,8.18
22,8.164
22.004,8.06
22.008,8.104
22.012,8.14
22.016,8.112
22.02,8.108
22.024,8.092
22.028,8.112
22.032,8.16
22.036,8.112
22.04,8.08
22.044,8.172
22.048,8.18
22.052,8.132
22.056,8.144
22.06,8.152
22.064,8.184
22.068,8.16
22.072,8.152
22.076,8.172
22.08,8.224
22.084,8.176
22.088,8.192
22.092,8.22
22.096,8.252
22.1,8.248
22.104,8.22
22.108,8.244
22.112,8.3
22.116,8.296
22.12,8.284
22.124,8.328
22.128,8.364
22.132,8.336
22.136,8.344
22.14,8.34
22.144,8.412
22.148,8.444
22.152,8.44
22.156,8.456
22.16,8.52
22.164,8.58
22.168,8.572
22.172,8.616
22.176,8.672
22.18,8.748
22.184,8.776
22.188,8.82
22.192,8.876
22.196,8.992
22.2,9.024
22.204,9.028
22.208,9.108
22.212,9.252
22.216,9.296
22.22,9.264
22.224,9.324
22.228,9.352
22.232,9.344
22.236,9.22
22.24,9.176
22.244,9.096
22.248,9.052
22.252,8.876
22.256,8.756
22.26,8.656
22.264,8.592
22.268,8.468
22.272,8.36
22.276,8.308
22.28,8.284
22.284,8.216
22.288,8.132
22.292,8.096
22.296,8.104
22.3,8.068
22.304,7.988
22.308,8.008
22.312,8.024
22.316,8.016
22.32,7.976
22.324,7.972
22.328,8
22.332,7.988
22.336,7.952
22.34,7.96
22.344,8.02
22.348,8.024
22.352,7.964
22.356,7.94
22.36,7.988
22.364,7.992
22.368,7.964
22.372,7.964
22.376,7.968
22.38,8.008
22.384,7.952
22.388,7.94
22.392,7.948
22.396,7.964
22.4,7.94
22.404,7.94
22.408,7.956
22.412,7.96
22.416,7.936
22.42,7.92
22.424,7.912
22.428,7.972
22.432,7.94
22.436,7.884
22.44,7.9
22.444,7.924
22.448,7.936
22.452,7.916
22.456,7.868
22.46,7.908
22.464,7.916
22.468,7.888
22.472,7.86
22.476,7.92
22.48,7.916
22.484,7.872
22.488,7.888
22.492,7.872
22.496,7.896
22.5,7.892
22.504,7.848
22.508,7.82
22.512,7.864
22.516,7.908
22.52,7.848
22.524,7.836
22.528,7.86
22.532,7.876
22.536,7.84
22.54,7.856
22.544,7.864
22.548,7.904
22.552,7.856
22.556,7.82
22.56,7.876
22.564,7.876
22.568,7.872
22.572,7.84
22.576,7.832
22.58,7.852
22.584,7.852
22.588,7.824
22.592,7.812
22.596,7.884
22.6,7.844
22.604,7.808
22.608,7.824
22.612,7.88
22.616,7.868
22.62,7.82
22.624,7.816
22.628,7.836
22.632,7.86
22.636,7.824
22.64,7.804
22.644,7.84
22.648,7.84
22.652,7.852
22.656,7.812
22.66,7.84
22.664,7.88
22.668,7.816
22.672,7.784
22.676,7.852
22.68,7.86
22.684,7.868
22.688,7.828
22.692,7.84
22.696,7.884
22.7,7.892
22.704,7.84
22.708,7.844
22.712,7.864
22.716,7.852
22.72,7.828
22.724,7.816
22.728,7.86
22.732,7.828
22.736,7.808
22.74,7.796
22.744,7.848
22.748,7.856
22.752,7.86
22.756,7.824
22.76,7.824
22.764,7.904
22.768,7.836
22.772,7.8
22.776,7.848
22.78,7.864
22.784,7.844
22.788,7.828
22.792,7.836
22.796,7.856
22.8,7.836
22.804,7.844
22.808,7.82
22.812,7.864
22.816,7.884
22.82,7.88
22.824,7.864
22.828,7.908
22.832,7.96
22.836,7.996
22.84,8.08
22.844,8.088
22.848,8.108
22.852,8.064
22.856,8.004
22.86,8.048
22.864,8.044
22.868,8.072
22.872,8.012
22.876,7.956
22.88,7.924
22.884,7.884
22.888,7.884
22.892,7.872
22.896,7.952
22.9,7.932
22.904,7.9
22.908,7.872
22.912,7.876
22.916,7.8
22.92,7.796
22.924,7.816
22.928,7.824
22.932,7.848
22.936,7.8
22.94,7.776
22.944,7.82
22.948,7.86
22.952,7.776
22.956,7.796
22.96,7.816
22.964,7.82
22.968,7.796
22.972,7.796
22.976,7.808
22.98,7.88
22.984,7.844
22.988,7.804
22.992,7.82
22.996,7.856
23,7.864
23.004,7.836
23.008,7.836
23.012,7.852
23.016,7.856
23.02,7.84
23.024,7.792
23.028,7.72
23.032,7.616
23.036,7.604
23.04,7.796
23.044,8.48
23.048,9.62
23.052,11
23.056,12.296
23.06,13.316
23.064,12.836
23.068,11.072
23.072,8.984
23.076,7.944
23.08,7.784
23.084,7.724
23.088,7.724
23.092,7.828
23.096,7.98
23.1,8.08
23.104,8.044
23.108,8.044
23.112,8.056
23.116,8.04
23.12,7.996
23.124,7.96
23.128,8
23.132,8.044
23.136,8
23.14,7.964
23.144,8.044
23.148,8.052
23.152,8.048
23.156,7.996
23.16,8.052
23.164,8.096
23.168,8.056
23.172,8.044
23.176,8.076
23.18,8.132
23.184,8.12
23.188,8.076
23.192,8.116
23.196,8.116
23.2,8.108
23.204,8.08
23.208,8.144
23.212,8.192
23.216,8.188
23.22,8.16
23.224,8.188
23.228,8.204
23.232,8.244
23.236,8.208
23.24,8.224
23.244,8.248
23.248,8.308
23.252,8.272
23.256,8.26
23.26,8.36
23.264,8.38
23.268,8.408
23.272,8.412
23.276,8.472
23.28,8.552
23.284,8.568
23.288,8.556
23.292,8.636
23.296,8.728
23.3,8.776
23.304,8.804
23.308,8.884
23.312,8.976
23.316,9.04
23.32,9.056
23.324,9.132
23.328,9.228
23.332,9.28
23.336,9.284
23.34,9.272
23.344,9.3
23.348,9.268
23.352,9.172
23.356,9.04
23.36,8.96
23.364,8.868
23.368,8.724
23.372,8.62
23.376,8.536
23.38,8.464
23.384,8.376
23.388,8.256
23.392,8.172
23.396,8.172
23.4,8.12
23.404,8.02
23.408,8
23.412,8.008
23.416,7.976
23.42,7.924
23.424,7.916
23.428,7.948
23.432,7.928
23.436,7.916
23.44,7.892
23.444,7.92
23.448,7.924
23.452,7.876
23.456,7.872
23.46,7.9
23.464,7.944
23.468,7.924
23.472,7.884
23.476,7.904
23.48,7.94
23.484,7.9
23.488,7.892
23.492,7.936
23.496,7.928
23.5,7.908
23.504,7.892
23.508,7.892
23.512,7.94
23.516,7.916
23.52,7.892
23.524,7.9
23.528,7.924
23.532,7.924
23.536,7.9
23.54,7.852
23.544,7.92
23.548,7.9
23.552,7.86
23.556,7.9
23.56,7.932
23.564,7.932
23.568,7.936
23.572,7.892
23.576,7.924
23.58,7.968
23.584,7.928
23.588,7.872
23.592,7.9
23.596,7.908
23.6,7.9
23.604,7.872
23.608,7.896
23.612,7.92
23.616,7.908
23.62,7.856
23.624,7.844
23.628,7.86
23.632,7.864
23.636,7.84
23.64,7.812
23.644,7.848
23.648,7.824
23.652,7.84
23.656,7.824
23.66,7.824
23.664,7.816
23.668,7.812
23.672,7.812
23.676,7.784
23.68,7.84
23.684,7.828
23.688,7.756
23.692,7.82
23.696,7.816
23.7,7.808
23.704,7.8
23.708,7.8
23.712,7.856
23.716,7.856
23.72,7.8
23.724,7.784
23.728,7.844
23.732,7.828
23.736,7.804
23.74,7.828
23.744,7.86
23.748,7.844
23.752,7.836
23.756,7.8
23.76,7.832
23.764,7.848
23.768,7.828
23.772,7.804
23.776,7.832
23.78,7.84
23.784,7.832
23.788,7.808
23.792,7.84
23.796,7.888
23.8,7.884
23.804,7.852
23.808,7.928
23.812,8.028
23.816,8.076
23.82,8.008
23.824,7.992
23.828,7.96
23.832,7.988
23.836,7.984
23.84,7.996
23.844,8.056
23.848,8.012
23.852,7.92
23.856,7.856
23.86,7.88
23.864,7.872
23.868,7.876
23.872,7.868
23.876,7.892
23.88,7.884
23.884,7.84
23.888,7.808
23.892,7.768
23.896,7.796
23.9,7.788
23.904,7.732
23.908,7.74
23.912,7.784
23.916,7.78
23.92,7.74
23.924,7.74
23.928,7.764
23.932,7.78
23.936,7.764
23.94,7.768
23.944,7.804
23.948,7.776
23.952,7.76
23.956,7.764
23.96,7.792
23.964,7.8
23.968,7.78
23.972,7.792
23.976,7.804
23.98,7.816
23.984,7.812
23.988,7.772
23.992,7.82
23.996,7.856
24,7.848
24.004,7.72
24.008,7.644
24.012,7.624
24.016,7.748
24.02,8.212
24.024,9.252
24.028,10.676
24.032,12.1
24.036,13.268
24.04,13.32
24.044,11.868
24.048,9.656
24.052,8.144
24.056,7.704
24.06,7.688
24.064,7.708
24.068,7.752
24.072,7.88
24.076,8.04
24.08,8.072
24.084,8.048
24.088,7.984
24.092,7.944
24.096,7.964
24.1,7.98
24.104,7.956
24.108,7.96
24.112,7.984
24.116,7.988
24.12,7.976
24.124,7.936
24.128,7.996
24.132,7.98
24.136,7.988
24.14,8
24.144,8.028
24.148,8.056
24.152,8.064
24.156,8.04
24.16,8.096
24.164,8.112
24.168,8.096
24.172,8.08
24.176,8.1
24.18,8.152
24.184,8.132
24.188,8.108
24.192,8.136
24.196,8.204
24.2,8.172
24.204,8.18
24.208,8.168
24.212,8.236
24.216,8.224
24.22,8.228
24.224,8.24
24.228,8.28
24.232,8.328
24.236,8.312
24.24,8.32
24.244,8.396
24.248,8.432
24.252,8.424
24.256,8.448
24.26,8.524
24.264,8.588
24.268,8.624
24.272,8.672
24.276,8.736
24.28,8.836
24.284,8.876
24.288,8.896
24.292,8.984
24.296,9.076
24.3,9.156
24.304,9.208
24.308,9.22
24.312,9.292
24.316,9.308
24.32,9.244
24.324,9.156
24.328,9.12
24.332,9.06
24.336,8.892
24.34,8.808
24.344,8.696
24.348,8.576
24.352,8.44
24.356,8.312
24.36,8.264
24.364,8.22
24.368,8.12
24.372,8.032
24.376,8.012
24.38,7.988
24.384,7.94
24.388,7.912
24.392,7.912
24.396,7.908
24.4,7.896
24.404,7.872
24.408,7.848
24.412,7.892
24.416,7.856
24.42,7.836
24.424,7.852
24.428,7.876
24.432,7.888
24.436,7.856
24.44,7.84
24.444,7.86
24.448,7.884
24.452,7.844
24.456,7.808
24.46,7.876
24.464,7.884
24.468,7.844
24.472,7.828
24.476,7.876
24.48,7.86
24.484,7.84
24.488,7.812
24.492,7.852
24.496,7.884
24.5,7.864
24.504,7.848
24.508,7.844
24.512,7.856
24.516,7.9
24.52,7.852
24.524,7.844
24.528,7.872
24.532,7.888
24.536,7.84
24.54,7.84
24.544,7.864
24.548,7.856
24.552,7.832
24.556,7.816
24.56,7.848
24.564,7.844
24.568,7.804
24.572,7.816
24.576,7.824
24.58,7.82
24.584,7.844
24.588,7.756
24.592,7.82
24.596,7.836
24.6,7.82
24.604,7.8
24.608,7.808
24.612,7.82
24.616,7.836
24.62,7.816
24.624,7.8
24.628,7.848
24.632,7.848
24.636,7.8
24.64,7.792
24.644,7.824
24.648,7.844
24.652,7.812
24.656,7.788
24.66,7.812
24.664,7.804
24.668,7.8
24.672,7.776
24.676,7.792
24.68,7.804
24.684,7.788
24.688,7.764
24.692,7.788
24.696,7.82
24.7,7.816
24.704,7.792
24.708,7.776
24.712,7.82
24.716,7.792
24.72,7.772
24.724,7.796
24.728,7.824
24.732,7.832
24.736,7.788
24.74,7.816
24.744,7.808
24.748,7.824
24.752,7.784
24.756,7.788
24.76,7.84
24.764,7.868
24.768,7.824
24.772,7.852
24.776,7.912
24.78,8.012
24.784,8.044
24.788,8.016
24.792,7.988
24.796,7.996
24.8,7.996
24.804,7.972
24.808,7.992
24.812,8.004
24.816,7.972
24.82,7.908
24.824,7.864
24.828,7.892
24.832,7.888
24.836,7.832
24.84,7.852
24.844,7.88
24.848,7.872
24.852,7.828
24.856,7.748
24.86,7.784
24.864,7.776
24.868,7.748
24.872,7.716
24.876,7.744
24.88,7.768
24.884,7.768
24.888,7.712
24.892,7.78
24.896,7.796
24.9,7.76
24.904,7.748
24.908,7.76
24.912,7.784
24.916,7.772
24.92,7.736
24.924,7.748
24.928,7.796
24.932,7.788
24.936,7.76
24.94,7.776
24.944,7.804
24.948,7.792
24.952,7.788
24.956,7.8
24.96,7.832
24.964,7.832
24.968,7.72
24.972,7.604
24.976,7.632
24.98,7.808
24.984,8.368
24.988,9.428
24.992,10.832
24.996,12.212
25,13.316
25.004,12.972
25.008,11.404
25.012,9.264
25.016,7.988
25.02,7.692
25.024,7.676
25.028,7.74
25.032,7.864
25.036,7.996
25.04,8.056
25.044,8.028
25.048,8.044
25.052,7.98
25.056,7.948
25.06,7.94
25.064,7.972
25.068,7.956
25.072,7.936
25.076,7.984
25.08,7.984
25.084,7.968
25.088,7.948
25.092,7.956
25.096,8.016
25.1,8.024
25.104,7.984
25.108,7.988
25.112,8.012
25.116,8.04
25.12,8.016
25.124,8.016
25.128,8.04
25.132,8.064
25.136,8.048
25.14,8.036
25.144,8.076
25.148,8.084
25.152,8.056
25.156,8.068
25.16,8.108
25.164,8.144
25.168,8.144
25.172,8.128
25.176,8.18
25.18,8.188
25.184,8.208
25.188,8.208
25.192,8.256
25.196,8.284
25.2,8.3
25.204,8.272
25.208,8.328
25.212,8.36
25.216,8.388
25.22,8.432
25.224,8.468
25.228,8.552
25.232,8.616
25.236,8.652
25.24,8.648
25.244,8.768
25.248,8.852
25.252,8.9
25.256,8.928
25.26,9.012
25.264,9.124
25.268,9.148
25.272,9.156
25.276,9.192
25.28,9.236
25.284,9.18
25.288,9.084
25.292,9.04
25.296,8.968
25.3,8.852
25.304,8.716
25.308,8.616
25.312,8.52
25.316,8.416
25.32,8.288
25.324,8.196
25.328,8.168
25.332,8.12
25.336,8.048
25.34,7.972
25.344,7.996
25.348,7.98
25.352,7.928
25.356,7.876
25.36,7.908
25.364,7.908
25.368,7.852
25.372,7.824
25.376,7.84
25.38,7.868
25.384,7.872
25.388,7.832
25.392,7.872
25.396,7.864
25.4,7.852
25.404,7.864
25.408,7.844
25.412,7.888
25.416,7.86
25.42,7.868
25.424,7.876
25.428,7.876
25.432,7.872
25.436,7.86
25.44,7.828
25.444,7.86
25.448,7.84
25.452,7.784
25.456,7.808
25.46,7.856
25.464,7.832
25.468,7.82
25.472,7.816
25.476,7.828
25.48,7.836
25.484,7.788
25.488,7.768
25.492,7.8
25.496,7.836
25.5,7.84
25.504,7.784
25.508,7.776
25.512,7.804
25.516,7.812
25.52,7.78
25.524,7.776
25.528,7.816
25.532,7.82
25.536,7.768
25.54,7.788
25.544,7.816
25.548,7.788
25.552,7.796
25.556,7.74
25.56,7.788
25.564,7.824
25.568,7.812
25.572,7.752
25.576,7.8
25.58,7.804
25.584,7.792
25.588,7.764
25.592,7.784
25.596,7.812
25.6,7.784
25.604,7.772
25.608,7.748
25.612,7.804
25.616,7.792
25.62,7.748
25.624,7.752
25.628,7.788
25.632,7.792
25.636,7.788
25.64,7.736
25.644,7.768
25.648,7.784
25.652,7.78
25.656,7.74
25.66,7.788
25.664,7.784
25.668,7.764
25.672,7.784
25.676,7.78
25.68,7.796
25.684,7.776
25.688,7.732
25.692,7.756
25.696,7.804
25.7,7.8
25.704,7.76
25.708,7.764
25.712,7.788
25.716,7.8
25.72,7.744
25.724,7.764
25.728,7.772
25.732,7.784
25.736,7.76
25.74,7.748
25.744,7.792
25.748,7.796
25.752,7.756
25.756,7.748
25.76,7.788
25.764,7.796
25.768,7.776
25.772,7.744
25.776,7.776
25.78,7.808
25.784,7.788
25.788,7.764
25.792,7.78
25.796,7.8
25.8,7.784
25.804,7.788
25.808,7.776
25.812,7.784
25.816,7.792
25.82,7.772
25.824,7.788
25.828,7.816
25.832,7.852
25.836,7.796
25.84,7.8
25.844,7.836
25.848,7.892
25.852,7.936
25.856,8.02
25.86,8.04
25.864,8.016
25.868,7.96
25.872,7.928
25.876,7.972
25.88,7.984
25.884,7.968
25.888,7.92
25.892,7.924
25.896,7.904
25.9,7.872
25.904,7.824
25.908,7.82
25.912,7.852
25.916,7.856
25.92,7.796
25.924,7.808
25.928,7.804
25.932,7.776
25.936,7.748
25.94,7.724
25.944,7.756
25.948,7.752
25.952,7.752
25.956,7.728
25.96,7.744
25.964,7.78
25.968,7.768
25.972,7.736
25.976,7.772
25.98,7.772
25.984,7.764
25.988,7.724
25.992,7.76
25.996,7.764
26,7.776
26.004,7.772
26.008,7.768
26.012,7.776
26.016,7.816
26.02,7.784
26.024,7.772
26.028,7.856
26.032,7.86
26.036,7.78
26.04,7.684
26.044,7.656
26.048,7.66
26.052,7.876
26.056,8.476
26.06,9.64
26.064,11.036
26.068,12.248
26.072,13.224
26.076,12.728
26.08,11.08
26.084,9.008
26.088,7.856
26.092,7.74
26.096,7.736
26.1,7.772
26.104,7.9
26.108,8.036
26.112,8.096
26.116,8.044
26.12,7.984
26.124,8
26.128,7.992
26.132,7.952
26.136,7.948
26.14,7.956
26.144,7.976
26.148,7.948
26.152,7.964
26.156,7.94
26.16,7.984
26.164,8.008
26.168,7.988
26.172,7.992
26.176,8.008
26.18,8.024
26.184,8.04
26.188,8.044
26.192,8.04
26.196,8.08
26.2,8.052
26.204,8.028
26.208,8.048
26.212,8.1
26.216,8.088
26.22,8.044
26.224,8.064
26.228,8.108
26.232,8.132
26.236,8.108
26.24,8.108
26.244,8.156
26.248,8.18
26.252,8.14
26.256,8.132
26.26,8.192
26.264,8.24
26.268,8.22
26.272,8.216
26.276,8.256
26.28,8.316
26.284,8.332
26.288,8.324
26.292,8.376
26.296,8.48
26.3,8.512
26.304,8.508
26.308,8.576
26.312,8.676
26.316,8.716
26.32,8.752
26.324,8.828
26.328,8.9
26.332,8.984
26.336,8.992
26.34,9.068
26.344,9.152
26.348,9.164
26.352,9.164
26.356,9.136
26.36,9.128
26.364,9.092
26.368,8.984
26.372,8.856
26.376,8.78
26.38,8.704
26.384,8.576
26.388,8.456
26.392,8.38
26.396,8.328
26.4,8.22
26.404,8.108
26.408,8.076
26.412,8.084
26.416,7.992
26.42,7.948
26.424,7.936
26.428,7.944
26.432,7.928
26.436,7.868
26.44,7.868
26.444,7.864
26.448,7.88
26.452,7.876
26.456,7.86
26.46,7.876
26.464,7.912
26.468,7.876
26.472,7.86
26.476,7.888
26.48,7.888
26.484,7.884
26.488,7.84
26.492,7.868
26.496,7.9
26.5,7.888
26.504,7.848
26.508,7.844
26.512,7.896
26.516,7.86
26.52,7.856
26.524,7.856
26.528,7.86
26.532,7.872
26.536,7.836
26.54,7.828
26.544,7.856
26.548,7.892
26.552,7.836
26.556,7.836
26.56,7.864
26.564,7.872
26.568,7.84
26.572,7.812
26.576,7.836
26.58,7.872
26.584,7.86
26.588,7.808
26.592,7.856
26.596,7.892
26.6,7.86
26.604,7.8
26.608,7.812
26.612,7.836
26.616,7.82
26.62,7.804
26.624,7.792
26.628,7.816
26.632,7.844
26.636,7.8
26.64,7.784
26.644,7.808
26.648,7.816
26.652,7.8
26.656,7.76
26.66,7.8
26.664,7.824
26.668,7.78
26.672,7.784
26.676,7.804
26.68,7.824
26.684,7.8
26.688,7.768
26.692,7.78
26.696,7.82
26.7,7.796
26.704,7.744
26.708,7.76
26.712,7.8
26.716,7.792
26.72,7.752
26.724,7.756
26.728,7.792
26.732,7.792
26.736,7.748
26.74,7.756
26.744,7.8
26.748,7.828
26.752,7.776
26.756,7.78
26.76,7.78
26.764,7.8
26.768,7.764
26.772,7.772
26.776,7.752
26.78,7.788
26.784,7.768
26.788,7.768
26.792,7.792
26.796,7.82
26.8,7.816
26.804,7.784
26.808,7.788
26.812,7.868
26.816,7.928
26.82,7.996
26.824,7.984
26.828,7.98
26.832,7.948
26.836,7.92
26.84,7.936
26.844,7.956
26.848,8.016
26.852,7.972
26.856,7.936
26.86,7.896
26.864,7.828
26.868,7.812
26.872,7.812
26.876,7.812
26.88,7.852
26.884,7.848
26.888,7.792
26.892,7.788
26.896,7.788
26.9,7.74
26.904,7.704
26.908,7.704
26.912,7.756
26.916,7.748
26.92,7.724
26.924,7.708
26.928,7.756
26.932,7.724
26.936,7.712
26.94,7.692
26.944,7.74
26.948,7.724
26.952,7.72
26.956,7.676
26.96,7.76
26.964,7.736
26.968,7.7
26.972,7.704
26.976,7.732
26.98,7.764
26.984,7.756
26.988,7.76
26.992,7.736
26.996,7.808
27,7.78
27.004,7.736
27.008,7.588
27.012,7.532
27.016,7.56
27.02,7.816
27.024,8.5
27.028,9.736
27.032,11.212
27.036,12.496
27.04,13.3
27.044,12.444
27.048,10.576
27.052,8.592
27.056,7.78
27.06,7.684
27.064,7.648
27.068,7.668
27.072,7.716
27.076,7.856
27.08,8
27.084,7.992
27.088,7.968
27.092,7.912
27.096,7.972
27.1,7.92
27.104,7.888
27.108,7.892
27.112,7.924
27.116,7.924
27.12,7.892
27.124,7.904
27.128,7.932
27.132,7.964
27.136,7.948
27.14,7.928
27.144,7.988
27.148,7.972
27.152,7.972
27.156,7.98
27.16,8.012
27.164,7.992
27.168,8.008
27.172,8
27.176,8.064
27.18,8.052
27.184,8.048
27.188,8.028
27.192,8.068
27.196,8.08
27.2,8.096
27.204,8.064
27.208,8.088
27.212,8.136
27.216,8.144
27.22,8.128
27.224,8.164
27.228,8.208
27.232,8.216
27.236,8.22
27.24,8.264
27.244,8.288
27.248,8.32
27.252,8.376
27.256,8.388
27.26,8.404
27.264,8.484
27.268,8.484
27.272,8.528
27.276,8.6
27.28,8.676
27.284,8.748
27.288,8.788
27.292,8.848
27.296,8.928
27.3,8.992
27.304,9.032
27.308,9.076
27.312,9.156
27.316,9.176
27.32,9.132
27.324,9.112
27.328,9.064
27.332,9.016
27.336,8.852
27.34,8.74
27.344,8.636
27.348,8.56
27.352,8.436
27.356,8.364
27.36,8.292
27.364,8.244
27.368,8.136
27.372,8.048
27.376,8.024
27.38,7.988
27.384,7.956
27.388,7.892
27.392,7.884
27.396,7.864
27.4,7.828
27.404,7.812
27.408,7.82
27.412,7.832
27.416,7.816
27.42,7.76
27.424,7.796
27.428,7.856
27.432,7.812
27.436,7.764
27.44,7.78
27.444,7.788
27.448,7.836
27.452,7.788
27.456,7.776
27.46,7.836
27.464,7.832
27.468,7.804
27.472,7.804
27.476,7.82
27.48,7.816
27.484,7.848
27.488,7.828
27.492,7.836
27.496,7.868
27.5,7.872
27.504,7.816
27.508,7.808
27.512,7.892
27.516,7.88
27.52,7.816
27.524,7.844
27.528,7.852
27.532,7.88
27.536,7.828
27.54,7.84
27.544,7.88
27.548,7.832
27.552,7.796
27.556,7.792
27.56,7.8
27.564,7.868
27.568,7.824
27.572,7.828
27.576,8.248
27.58,8.388
27.584,8.244
27.588,8.244
27.592,8.1
27.596,8.008
27.6,7.924
27.604,7.856
27.608,7.868
27.612,7.86
27.616,7.86
27.62,7.816
27.624,7.804
27.628,7.84
27.632,7.84
27.636,7.756
27.64,7.768
27.644,7.776
27.648,7.836
27.652,7.824
27.656,7.792
27.66,7.784
27.664,7.872
27.668,7.812
27.672,7.792
27.676,7.796
27.68,7.804
27.684,7.76
27.688,7.78
27.692,7.812
27.696,7.836
27.7,7.768
27.704,7.756
27.708,7.74
27.712,7.836
27.716,7.812
27.72,7.76
27.724,7.768
27.728,7.852
27.732,7.852
27.736,7.844
27.74,7.864
27.744,7.94
27.748,8.056
27.752,8.02
27.756,7.976
27.76,7.96
27.764,8
27.768,7.964
27.772,7.972
27.776,7.996
27.78,8.016
27.784,7.948
27.788,7.896
27.792,7.864
27.796,7.924
27.8,7.88
27.804,7.876
27.808,7.86
27.812,7.872
27.816,7.864
27.82,7.812
27.824,7.792
27.828,7.772
27.832,7.796
27.836,7.776
27.84,7.752
27.844,7.76
27.848,7.784
27.852,7.716
27.856,7.74
27.86,7.8
27.864,7.808
27.868,7.784
27.872,7.792
27.876,7.76
27.88,7.82
27.884,7.792
27.888,7.788
27.892,7.788
27.896,7.796
27.9,7.792
27.904,7.784
27.908,7.824
27.912,7.852
27.916,7.856
27.92,7.82
27.924,7.84
27.928,7.86
27.932,7.828
27.936,7.692
27.94,7.592
27.944,7.596
27.948,7.796
27.952,8.376
27.956,9.52
27.96,10.992
27.964,12.436
27.968,13.432
27.972,12.992
27.976,11.212
27.98,9.064
27.984,7.936
27.988,7.736
27.992,7.72
27.996,7.74
28,7.768
28.004,7.876
28.008,8
28.012,8.088
28.016,8.044
28.02,7.972
28.024,7.984
28.028,7.984
28.032,7.964
28.036,7.956
28.04,7.96
28.044,7.98
28.048,8.02
28.052,7.976
28.056,7.964
28.06,7.976
28.064,8.024
28.068,8.016
28.072,8.012
28.076,8.004
28.08,8.056
28.084,8.048
28.088,8.048
28.092,8.036
28.096,8.088
28.1,8.044
28.104,8.028
28.108,8.068
28.112,8.14
28.116,8.14
28.12,8.112
28.124,8.144
28.128,8.168
28.132,8.172
28.136,8.176
28.14,8.172
28.144,8.232
28.148,8.248
28.152,8.248
28.156,8.252
28.16,8.296
28.164,8.352
28.168,8.304
28.172,8.316
28.176,8.372
28.18,8.432
28.184,8.452
28.188,8.464
28.192,8.548
28.196,8.632
28.2,8.664
28.204,8.7
28.208,8.764
28.212,8.864
28.216,8.9
28.22,8.952
28.224,9.036
28.228,9.112
28.232,9.212
28.236,9.228
28.24,9.24
28.244,9.296
28.248,9.284
28.252,9.224
28.256,9.152
28.26,9.088
28.264,9.008
28.268,8.868
28.272,8.76
28.276,8.668
28.28,8.604
28.284,8.488
28.288,8.396
28.292,8.324
28.296,8.3
28.3,8.228
28.304,8.156
28.308,8.116
28.312,8.112
28.316,8.06
28.32,8.044
28.324,8.004
28.328,8.012
28.332,8.024
28.336,7.948
28.34,7.968
28.344,7.976
28.348,7.972
28.352,7.932
28.356,7.924
28.36,7.944
28.364,7.952
28.368,7.948
28.372,7.908
28.376,7.94
28.38,7.948
28.384,7.912
28.388,7.892
28.392,7.888
28.396,7.916
28.4,7.9
28.404,7.868
28.408,7.86
28.412,7.916
28.416,7.92
28.42,7.892
28.424,7.856
28.428,7.872
28.432,7.876
28.436,7.848
28.44,7.86
28.444,7.872
28.448,7.904
28.452,7.852
28.456,7.876
28.46,7.916
28.464,7.92
28.468,7.916
28.472,7.92
28.476,7.964
28.48,7.976
28.484,7.968
28.488,7.916
28.492,7.908
28.496,7.944
28.5,7.932
28.504,7.888
28.508,7.928
28.512,7.916
28.516,7.9
28.52,7.9
28.524,7.852
28.528,7.884
28.532,7.932
28.536,7.856
28.54,7.852
28.544,7.9
28.548,7.932
28.552,7.88
28.556,7.848
28.56,7.896
28.564,7.908
28.568,7.876
28.572,7.86
28.576,7.9
28.58,7.896
28.584,7.904
28.588,7.892
28.592,7.892
28.596,7.912
28.6,7.916
28.604,7.872
28.608,7.904
28.612,7.996
28.616,8
28.62,8.016
28.624,8.08
28.628,8.176
28.632,8.18
28.636,8.152
28.64,8.16
28.644,8.18
28.648,8.192
28.652,8.172
28.656,8.164
28.66,8.2
28.664,8.208
28.668,8.14
28.672,8.072
28.676,8.08
28.68,8.08
28.684,8.088
28.688,8.052
28.692,8.056
28.696,8.072
28.7,8.016
28.704,7.952
28.708,7.944
28.712,7.96
28.716,7.956
28.72,7.9
28.724,7.9
28.728,7.928
28.732,7.936
28.736,7.892
28.74,7.864
28.744,7.9
28.748,7.916
28.752,7.9
28.756,7.896
28.76,7.908
28.764,7.928
28.768,7.904
28.772,7.88
28.776,7.896
28.78,7.94
28.784,7.936
28.788,7.932
28.792,7.912
28.796,7.948
28.8,7.964
28.804,7.94
28.808,7.936
28.812,7.924
28.816,7.792
28.82,7.712
28.824,7.856
28.828,8.38
28.832,9.424
28.836,10.816
28.84,12.204
28.844,13.436
28.848,13.516
28.852,12.028
28.856,9.848
28.86,8.308
28.864,7.88
28.868,7.824
28.872,7.832
28.876,7.912
28.88,8.164
28.884,8.24
28.888,8.196
28.892,8.168
28.896,8.148
28.9,8.128
28.904,8.088
28.908,8.084
28.912,8.12
28.916,8.136
28.92,8.108
28.924,8.064
28.928,8.12
28.932,8.128
28.936,8.088
28.94,8.128
28.944,8.136
28.948,8.14
28.952,8.136
28.956,8.116
28.96,8.144
28.964,8.212
28.968,8.18
28.972,8.14
28.976,8.18
28.98,8.232
28.984,8.228
28.988,8.216
28.992,8.236
28.996,8.288
29,8.26
29.004,8.268
29.008,8.284
29.012,8.308
29.016,8.336
29.02,8.332
29.024,8.324
29.028,8.372
29.032,8.396
29.036,8.372
29.04,8.372
29.044,8.444
29.048,8.492
29.052,8.472
29.056,8.524
29.06,8.592
29.064,8.632
29.068,8.668
29.072,8.692
29.076,8.784
29.08,8.9
29.084,8.892
29.088,8.924
29.092,9
29.096,9.132
29.1,9.172
29.104,9.22
29.108,9.292
29.112,9.384
29.116,9.408
29.12,9.412
29.124,9.404
29.128,9.364
29.132,9.288
29.136,9.176
29.14,9.048
29.144,8.968
29.148,8.904
29.152,8.716
29.156,8.596
29.16,8.544
29.164,8.472
29.168,8.344
29.172,8.272
29.176,8.244
29.18,8.22
29.184,8.156
29.188,8.136
29.192,8.112
29.196,8.092
29.2,8.088
29.204,8.028
29.208,8.016
29.212,8.072
29.216,8.028
29.22,8.032
29.224,8.016
29.228,8.036
29.232,8.024
29.236,8.048
29.24,8.016
29.244,8.044
29.248,8.048
29.252,8.016
29.256,7.96
29.26,8.036
29.264,8.056
29.268,8.052
29.272,7.996
29.276,8.068
29.28,8.08
29.284,8.032
29.288,8.004
29.292,8.024
29.296,8.02
29.3,7.984
29.304,8.02
29.308,8.048
29.312,8.024
29.316,7.972
29.32,7.944
29.324,7.984
29.328,8.032
29.332,8.016
29.336,8.048
29.34,7.996
29.344,7.992
29.348,8.128
29.352,8.016
29.356,8.016
29.36,8
29.364,8.08
29.368,8.036
29.372,7.98
29.376,8.028
29.38,7.996
29.384,7.976
29.388,7.976
29.392,7.992
29.396,8.008
29.4,8.072
29.404,8.044
29.408,8.032
29.412,8.048
29.416,8.004
29.42,7.972
29.424,7.976
29.428,7.976
29.432,7.992
29.436,7.976
29.44,7.992
29.444,8.068
29.448,8.012
29.452,8.012
29.456,7.968
29.46,7.916
29.464,8.12
29.468,8.148
29.472,8.16
29.476,8.272
29.48,8.264
29.484,8.304
29.488,8.24
29.492,8.2
29.496,8.28
29.5,8.26
29.504,8.244
29.508,8.208
29.512,8.244
29.516,8.18
29.52,8.072
29.524,8.096
29.528,8.188
29.532,8.076
29.536,7.892
29.54,8.012
29.544,8.064
29.548,8.028
29.552,7.952
29.556,7.912
29.56,7.908
29.564,7.92
29.568,7.96
29.572,7.992
29.576,7.992
29.58,7.948
29.584,7.856
29.588,7.876
29.592,7.96
29.596,7.988
29.6,8.016
29.604,7.992
29.608,7.916
29.612,7.86
29.616,7.884
29.62,8.008
29.624,7.996
29.628,7.988
29.632,8.088
29.636,7.976
29.64,8.02
29.644,8.092
29.648,8.036
29.652,7.952
29.656,7.924
29.66,7.816
29.664,7.688
29.668,7.912
29.672,8.184
29.676,9.084
29.68,10.536
29.684,11.94
29.688,13.256
29.692,13.804
29.696,12.708
29.7,10.476
29.704,8.504
29.708,7.96
29.712,7.924
29.716,8.04
29.72,8.068
29.724,8.08
29.728,8.28
29.732,8.148
29.736,8.332
29.74,8.32
29.744,8.252
29.748,8.268
29.752,8.216
29.756,8.284
29.76,8.236
29.764,8.196
29.768,8.216
29.772,8.26
29.776,8.312
29.78,8.32
29.784,8.328
29.788,8.32
29.792,8.228
29.796,8.236
29.8,8.284
29.804,8.296
29.808,8.368
29.812,8.364
29.816,8.344
29.82,8.352
29.824,8.34
29.828,8.384
29.832,8.388
29.836,8.344
29.84,8.428
29.844,8.44
29.848,8.444
29.852,8.448
29.856,8.444
29.86,8.484
29.864,8.508
29.868,8.492
29.872,8.48
29.876,8.524
29.88,8.584
29.884,8.552
29.888,8.552
29.892,8.596
29.896,8.652
29.9,8.688
29.904,8.668
29.908,8.736
29.912,8.82
29.916,8.856
29.92,8.864
29.924,8.932
29.928,8.984
29.932,9.076
29.936,9.14
29.94,9.168
29.944,9.244
29.948,9.352
29.952,9.368
29.956,9.408
29.96,9.484
29.964,9.508
29.968,9.472
29.972,9.432
29.976,9.372
29.98,9.324
29.984,9.204
29.988,9.028
29.992,8.924
29.996,8.876
30,8.732
30.004,8.612
30.008,8.532
30.012,8.492
30.016,8.44
30.02,8.328
30.024,8.284
30.028,8.28
30.032,8.228
30.036,8.184
30.04,8.156
30.044,8.168
30.048,8.16
30.052,8.136
30.056,8.104
30.06,8.116
30.064,8.144
30.068,8.12
30.072,8.12
30.076,8.1
30.08,8.12
30.084,8.104
30.088,8.072
30.092,8.08
30.096,8.124
30.1,8.104
30.104,8.084
30.108,8.084
30.112,8.084
30.116,8.076
30.12,8.068
30.124,8.052
30.128,8.068
30.132,8.088
30.136,8.04
30.14,8.056
30.144,8.072
30.148,8.084
30.152,8.024
30.156,8.016
30.16,8.044
30.164,8.048
30.168,8.028
30.172,7.984
30.176,8.02
30.18,8.06
30.184,8.012
30.188,7.98
30.192,8
30.196,8.024
30.2,8.012
30.204,7.996
30.208,7.988
30.212,8.016
30.216,8.02
30.22,7.992
30.224,7.968
30.228,8.012
30.232,8
30.236,7.972
30.24,7.98
30.244,7.992
30.248,8.012
30.252,7.956
30.256,7.948
30.26,7.968
30.264,7.984
30.268,7.96
30.272,7.94
30.276,7.964
30.28,7.992
30.284,7.964
30.288,7.936
30.292,7.952
30.296,8
30.3,7.944
30.304,7.94
30.308,7.948
30.312,7.968
30.316,7.96
30.32,7.928
30.324,7.92
30.328,7.944
30.332,7.976
30.336,7.908
30.34,7.94
30.344,7.972
30.348,7.964
30.352,7.94
30.356,7.92
30.36,7.932
30.364,7.964
30.368,7.932
30.372,7.916
30.376,7.932
30.38,7.976
30.384,7.948
30.388,7.92
30.392,7.952
30.396,7.98
30.4,7.988
30.404,7.972
30.408,8.028
30.412,8.12
30.416,8.188
30.42,8.192
30.424,8.188
30.428,8.2
30.432,8.168
30.436,8.136
30.44,8.04
30.444,8.14
30.448,8.152
30.452,8.064
30.456,8.032
30.46,8.06
30.464,8.02
30.468,7.996
30.472,7.932
30.476,7.972
30.48,7.98
30.484,7.908
30.488,7.852
30.492,7.884
30.496,7.896
30.5,7.888
30.504,7.852
30.508,7.844
30.512,7.916
30.516,7.912
30.52,7.852
30.524,7.844
30.528,7.872
30.532,7.848
30.536,7.856
30.54,7.836
30.544,7.868
30.548,7.88
30.552,7.852
30.556,7.86
30.56,7.876
30.564,7.888
30.568,7.86
30.572,7.872
30.576,7.864
30.58,7.912
30.584,7.872
30.588,7.872
30.592,7.912
30.596,7.928
30.6,7.896
30.604,7.828
30.608,7.744
30.612,7.764
30.616,7.856
30.62,8.308
30.624,9.292
30.628,10.648
30.632,11.9
30.636,13.128
30.64,13.416
30.644,12.292
30.648,10.276
30.652,8.3
30.656,7.664
30.66,7.768
30.664,7.784
30.668,7.96
30.672,8.14
30.676,8.196
30.68,8.156
30.684,8.072
30.688,8.036
30.692,8.008
30.696,8
30.7,7.976
30.704,7.984
30.708,7.988
30.712,8.02
30.716,8.016
30.72,7.984
30.724,7.96
30.728,8.008
30.732,8.02
30.736,8.02
30.74,8.008
30.744,8.012
30.748,8.056
30.752,8.008
30.756,8.02
30.76,8.024
30.764,8.088
30.768,8.056
30.772,8.024
30.776,8.044
30.78,8.096
30.784,8.064
30.788,8.052
30.792,8.04
30.796,8.104
30.8,8.104
30.804,8.08
30.808,8.12
30.812,8.116
30.816,8.144
30.82,8.128
30.824,8.128
30.828,8.212
30.832,8.236
30.836,8.236
30.84,8.244
30.844,8.304
30.848,8.344
30.852,8.344
30.856,8.376
30.86,8.444
30.864,8.496
30.868,8.48
30.872,8.544
30.876,8.672
30.88,8.744
30.884,8.752
30.888,8.796
30.892,8.896
30.896,8.96
30.9,9.016
30.904,9.04
30.908,9.152
30.912,9.18
30.916,9.148
30.92,9.108
30.924,9.084
30.928,9.036
30.932,8.964
30.936,8.832
30.94,8.712
30.944,8.64
30.948,8.516
30.952,8.428
30.956,8.332
30.96,8.26
30.964,8.204
30.968,8.1
30.972,8.068
30.976,8.056
30.98,8.02
30.984,7.98
30.988,7.928
30.992,7.924
30.996,7.928
31,7.896
31.004,7.884
31.008,7.904
31.012,7.912
31.016,7.904
31.02,7.844
31.024,7.844
31.028,7.892
31.032,7.892
31.036,7.832
31.04,7.848
31.044,7.864
31.048,7.888
31.052,7.868
31.056,7.848
31.06,7.876
31.064,7.86
31.068,7.856
31.072,7.856
31.076,7.852
31.08,7.856
31.084,7.828
31.088,7.812
31.092,7.804
31.096,7.824
31.1,7.848
31.104,7.784
31.108,7.82
31.112,7.84
31.116,7.828
31.12,7.772
31.124,7.784
31.128,7.816
31.132,7.812
31.136,7.784
31.14,7.764
31.144,7.78
31.148,7.792
31.152,7.752
31.156,7.772
31.16,7.764
31.164,7.788
31.168,7.776
31.172,7.76
31.176,7.772
31.18,7.784
31.184,7.776
31.188,7.748
31.192,7.76
31.196,7.784
31.2,7.776
31.204,7.74
31.208,7.748
31.212,7.792
31.216,7.78
31.22,7.728
31.224,7.74
31.228,7.764
31.232,7.784
31.236,7.736
31.24,7.748
31.244,7.764
31.248,7.756
31.252,7.728
31.256,7.704
31.26,7.756
31.264,7.752
31.268,7.724
31.272,7.704
31.276,7.728
31.28,7.756
31.284,7.732
31.288,7.704
31.292,7.712
31.296,7.76
31.3,7.752
31.304,7.716
31.308,7.756
31.312,7.744
31.316,7.76
31.32,7.688
31.324,7.716
31.328,7.732
31.332,7.752
31.336,7.74
31.34,7.752
31.344,7.744
31.348,7.764
31.352,7.72
31.356,7.676
31.36,7.724
31.364,7.772
31.368,7.708
31.372,7.716
31.376,7.752
31.38,7.74
31.384,7.736
31.388,7.684
31.392,7.676
31.396,7.796
31.4,7.76
31.404,7.728
31.408,7.7
31.412,7.748
31.416,7.76
31.42,7.72
31.424,7.728
31.428,7.748
31.432,7.772
31.436,7.76
31.44,7.724
31.444,7.748
31.448,7.776
31.452,7.724
31.456,7.708
31.46,7.72
31.464,7.756
31.468,7.804
31.472,7.724
31.476,7.788
31.48,7.808
31.484,7.764
31.488,7.752
31.492,7.872
31.496,8.012
31.5,7.968
31.504,7.932
31.508,7.948
31.512,7.952
31.516,7.952
31.52,7.956
31.524,7.952
31.528,7.984
31.532,7.944
31.536,7.828
31.54,7.78
31.544,7.856
31.548,7.844
31.552,7.82
31.556,7.796
31.56,7.816
31.564,7.812
31.568,7.796
31.572,7.76
31.576,7.732
31.58,7.724
31.584,7.708
31.588,7.692
31.592,7.756
31.596,7.752
31.6,7.704
31.604,7.688
31.608,7.7
31.612,7.736
31.616,7.768
31.62,7.716
31.624,7.708
31.628,7.768
31.632,7.788
31.636,7.768
31.64,7.748
31.644,7.728
31.648,7.764
31.652,7.784
31.656,7.756
31.66,7.784
31.664,7.828
31.668,7.756
31.672,7.744
31.676,7.82
31.68,7.836
31.684,7.736
31.688,7.56
31.692,7.568
31.696,7.76
31.7,8.22
31.704,9.144
31.708,10.544
31.712,11.864
31.716,12.996
31.72,12.848
31.724,11.444
31.728,9.428
31.732,8.056
31.736,7.704
31.74,7.716
31.744,7.78
31.748,7.836
31.752,7.976
31.756,8.02
31.76,8.064
31.764,8.02
31.768,7.96
31.772,7.952
31.776,7.92
31.78,7.916
31.784,7.888
31.788,7.888
31.792,7.916
31.796,7.96
31.8,7.972
31.804,7.956
31.808,7.944
31.812,7.952
31.816,7.964
31.82,7.976
31.824,7.932
31.828,7.996
31.832,8.008
31.836,7.976
31.84,8.012
31.844,8.012
31.848,8.024
31.852,8.028
31.856,8.02
31.86,8.048
31.864,8.092
31.868,8.056
31.872,8.02
31.876,8.068
31.88,8.144
31.884,8.096
31.888,8.096
31.892,8.12
31.896,8.164
31.9,8.188
31.904,8.164
31.908,8.172
31.912,8.268
31.916,8.24
31.92,8.252
31.924,8.288
31.928,8.352
31.932,8.376
31.936,8.36
31.94,8.404
31.944,8.48
31.948,8.512
31.952,8.572
31.956,8.572
31.96,8.688
31.964,8.768
31.968,8.788
31.972,8.812
31.976,8.908
31.98,8.96
31.984,9.008
31.988,9.024
31.992,9.084
31.996,9.132
32,9.116
32.004,9.096
32.008,9.048
32.012,8.996
32.016,8.88
32.02,8.76
32.024,8.664
32.028,8.572
32.032,8.508
32.036,8.388
32.04,8.264
32.044,8.256
32.048,8.192
32.052,8.088
32.056,8.036
32.06,8.032
32.064,8
32.068,7.996
32.072,7.932
32.076,7.94
32.08,7.924
32.084,7.916
32.088,7.888
32.092,7.916
32.096,7.944
32.1,7.932
32.104,7.888
32.108,7.884
32.112,7.924
32.116,7.916
32.12,7.876
32.124,7.928
32.128,7.948
32.132,7.968
32.136,7.924
32.14,7.88
32.144,7.892
32.148,7.9
32.152,7.88
32.156,7.884
32.16,7.872
32.164,7.884
32.168,7.884
32.172,7.836
32.176,7.84
32.18,7.88
32.184,7.844
32.188,7.852
32.192,7.848
32.196,7.868
32.2,7.868
32.204,7.836
32.208,7.856
32.212,7.86
32.216,7.848
32.22,7.82
32.224,7.824
32.228,7.844
32.232,7.844
32.236,7.828
32.24,7.804
32.244,7.836
32.248,7.84
32.252,7.84
32.256,7.8
32.26,7.856
32.264,7.864
32.268,7.8
32.272,7.788
32.276,7.816
32.28,7.824
32.284,7.828
32.288,7.78
32.292,7.796
32.296,7.832
32.3,7.828
32.304,7.804
32.308,7.788
32.312,7.82
32.316,7.796
32.32,7.78
32.324,7.78
32.328,7.836
32.332,7.796
32.336,7.764
32.34,7.776
32.344,7.832
32.348,7.82
32.352,7.78
32.356,7.776
32.36,7.824
32.364,7.832
32.368,7.788
32.372,7.768
32.376,7.796
32.38,7.796
32.384,7.788
32.388,7.78
32.392,7.796
32.396,7.82
32.4,7.808
32.404,7.756
32.408,7.784
32.412,7.82
32.416,7.796
32.42,7.756
32.424,7.772
32.428,7.828
32.432,7.844
32.436,7.768
32.44,7.792
32.444,7.828
32.448,7.836
32.452,7.824
32.456,7.824
32.46,7.952
32.464,8.036
32.468,8.032
32.472,7.98
32.476,7.96
32.48,7.972
32.484,7.992
32.488,7.992
32.492,8.008
32.496,8.032
32.5,8.004
32.504,7.92
32.508,7.916
32.512,7.908
32.516,7.924
32.52,7.888
32.524,7.908
32.528,7.936
32.532,7.88
32.536,7.828
32.54,7.796
32.544,7.812
32.548,7.796
32.552,7.744
32.556,7.72
32.56,7.788
32.564,7.824
32.568,7.756
32.572,7.736
32.576,7.772
32.58,7.808
32.584,7.748
32.588,7.76
32.592,7.744
32.596,7.796
32.6,7.792
32.604,7.72
32.608,7.752
32.612,7.784
32.616,7.776
32.62,7.712
32.624,7.752
32.628,7.792
32.632,7.8
32.636,7.788
32.64,7.772
32.644,7.8
32.648,7.84
32.652,7.784
32.656,7.68
32.66,7.572
32.664,7.544
32.668,7.628
32.672,8.14
32.676,9.16
32.68,10.556
32.684,11.972
32.688,13.088
32.692,13.056
32.696,11.56
32.7,9.324
32.704,7.98
32.708,7.688
32.712,7.672
32.716,7.708
32.72,7.656
32.724,7.772
32.728,7.936
32.732,7.992
32.736,7.94
32.74,7.932
32.744,7.948
32.748,7.984
32.752,7.932
32.756,7.884
32.76,7.928
32.764,7.912
32.768,7.892
32.772,7.872
32.776,7.916
32.78,7.94
32.784,7.948
32.788,7.932
32.792,7.976
32.796,7.992
32.8,7.984
32.804,7.984
32.808,7.972
32.812,8.016
32.816,8.016
32.82,8.008
32.824,8.02
32.828,8.088
32.832,8.072
32.836,8.036
32.84,8.044
32.844,8.072
32.848,8.092
32.852,8.076
32.856,8.076
32.86,8.12
32.864,8.176
32.868,8.148
32.872,8.128
32.876,8.172
32.88,8.192
32.884,8.184
32.888,8.192
32.892,8.236
32.896,8.296
32.9,8.324
32.904,8.328
32.908,8.392
32.912,8.424
32.916,8.448
32.92,8.48
32.924,8.512
32.928,8.628
32.932,8.704
32.936,8.704
32.94,8.764
32.944,8.824
32.948,8.912
32.952,8.92
32.956,8.944
32.96,9.024
32.964,9.08
32.968,9.036
32.972,8.976
32.976,8.952
32.98,8.908
32.984,8.796
32.988,8.668
32.992,8.58
32.996,8.52
33,8.396
33.004,8.276
33.008,8.184
33.012,8.176
33.016,8.108
33.02,7.996
33.024,7.952
33.028,7.956
33.032,7.928
33.036,7.836
33.04,7.812
33.044,7.856
33.048,7.832
33.052,7.784
33.056,7.76
33.06,7.82
33.064,7.82
33.068,7.768
33.072,7.784
33.076,7.776
33.08,7.828
33.084,7.784
33.088,7.784
33.092,7.792
33.096,7.828
33.1,7.8
33.104,7.752
33.108,7.768
33.112,7.812
33.116,7.768
33.12,7.764
33.124,7.784
33.128,7.812
33.132,7.816
33.136,7.784
33.14,7.776
33.144,7.804
33.148,7.832
33.152,7.792
33.156,7.768
33.16,7.816
33.164,7.804
33.168,7.788
33.172,7.748
33.176,7.776
33.18,7.8
33.184,7.748
33.188,7.736
33.192,7.732
33.196,7.796
33.2,7.756
33.204,7.748
33.208,7.724
33.212,7.736
33.216,7.764
33.22,7.728
33.224,7.704
33.228,7.74
33.232,7.76
33.236,7.724
33.24,7.724
33.244,7.744
33.248,7.728
33.252,7.732
33.256,7.692
33.26,7.744
33.264,7.724
33.268,7.688
33.272,7.648
33.276,7.684
33.28,7.72
33.284,7.716
33.288,7.7
33.292,7.712
33.296,7.724
33.3,7.696
33.304,7.68
33.308,7.7
33.312,7.744
33.316,7.72
33.32,7.708
33.324,7.728
33.328,7.788
33.332,7.868
33.336,7.888
33.34,7.904
33.344,7.928
33.348,7.928
33.352,7.848
33.356,7.884
33.36,7.94
33.364,7.96
33.368,7.888
33.372,7.86
33.376,7.86
33.38,7.868
33.384,7.768
33.388,7.748
33.392,7.784
33.396,7.776
33.4,7.74
33.404,7.692
33.408,7.652
33.412,7.672
33.416,7.688
33.42,7.636
33.424,7.62
33.428,7.672
33.432,7.668
33.436,7.6
33.44,7.62
33.444,7.672
33.448,7.66
33.452,7.628
33.456,7.612
33.46,7.668
33.464,7.68
33.468,7.636
33.472,7.592
33.476,7.636
33.48,7.676
33.484,7.648
33.488,7.64
33.492,7.648
33.496,7.692
33.5,7.664
33.504,7.62
33.508,7.66
33.512,7.728
33.516,7.688
33.52,7.696
33.524,7.672
33.528,7.652
33.532,7.52
33.536,7.428
33.54,7.488
33.544,7.968
33.548,8.888
33.552,10.208
33.556,11.696
33.56,12.968
33.564,13.28
33.568,11.964
33.572,9.732
33.576,8.136
33.58,7.664
33.584,7.552
33.588,7.548
33.592,7.596
33.596,7.728
33.6,7.852
33.604,7.908
33.608,7.88
33.612,7.904
33.616,7.888
33.62,7.836
33.624,7.848
33.628,7.852
33.632,7.876
33.636,7.836
33.64,7.84
33.644,7.876
33.648,7.892
33.652,7.884
33.656,7.88
33.66,7.928
33.664,7.956
33.668,7.908
33.672,7.904
33.676,7.912
33.68,7.94
33.684,7.952
33.688,7.944
33.692,7.98
33.696,8.012
33.7,8.016
33.704,7.992
33.708,8.032
33.712,8.048
33.716,8.064
33.72,8.056
33.724,8.072
33.728,8.112
33.732,8.144
33.736,8.12
33.74,8.14
33.744,8.184
33.748,8.232
33.752,8.2
33.756,8.172
33.76,8.26
33.764,8.288
33.768,8.328
33.772,8.296
33.776,8.42
33.78,8.496
33.784,8.504
33.788,8.516
33.792,8.596
33.796,8.708
33.8,8.756
33.804,8.764
33.808,8.828
33.812,8.96
33.816,9.02
33.82,9.04
33.824,9.116
33.828,9.196
33.832,9.212
33.836,9.216
33.84,9.204
33.844,9.172
33.848,9.112
33.852,9.008
33.856,8.888
33.86,8.824
33.864,8.708
33.868,8.568
33.872,8.44
33.876,8.408
33.88,8.304
33.884,8.24
33.888,8.14
33.892,8.112
33.896,8.08
33.9,8.04
33.904,7.976
33.908,7.976
33.912,7.984
33.916,7.96
33.92,7.916
33.924,7.9
33.928,7.92
33.932,7.912
33.936,7.868
33.94,7.868
33.944,7.928
33.948,7.928
33.952,7.908
33.956,7.884
33.96,7.908
33.964,7.924
33.968,7.9
33.972,7.868
33.976,7.9
33.98,7.932
33.984,7.916
33.988,7.896
33.992,7.912
33.996,7.94
34,7.928
34.004,7.888
34.008,7.896
34.012,7.916
34.016,7.932
34.02,7.896
34.024,7.896
34.028,7.928
34.032,7.944
34.036,7.888
34.04,7.876
34.044,7.924
34.048,7.936
34.052,7.88
34.056,7.884
34.06,7.912
34.064,7.908
34.068,7.892
34.072,7.86
34.076,7.884
34.08,7.928
34.084,7.912
34.088,7.88
34.092,7.884
34.096,7.916
34.1,7.9
34.104,7.868
34.108,7.868
34.112,7.9
34.116,7.908
34.12,7.892
34.124,7.864
34.128,7.912
34.132,7.928
34.136,7.84
34.14,7.872
34.144,7.916
34.148,7.9
34.152,7.88
34.156,7.856
34.16,7.92
34.164,7.94
34.168,7.892
34.172,7.836
34.176,7.892
34.18,7.916
34.184,7.888
34.188,7.856
34.192,7.876
34.196,7.896
34.2,7.88
34.204,7.84
34.208,7.86
34.212,7.888
34.216,7.9
34.22,7.94
34.224,7.996
34.228,8.076
34.232,8.104
34.236,8.092
34.24,8.096
34.244,8.136
34.248,8.112
34.252,8.048
34.256,8.06
34.26,8.088
34.264,8.072
34.268,8.044
34.272,8.004
34.276,7.972
34.28,7.956
34.284,7.948
34.288,7.932
34.292,7.948
34.296,7.956
34.3,7.88
34.304,7.84
34.308,7.84
34.312,7.844
34.316,7.824
34.32,7.776
34.324,7.812
34.328,7.824
34.332,7.824
34.336,7.796
34.34,7.776
34.344,7.82
34.348,7.836
34.352,7.804
34.356,7.768
34.36,7.832
34.364,7.824
34.368,7.784
34.372,7.796
34.376,7.816
34.38,7.872
34.384,7.848
34.388,7.844
34.392,7.848
34.396,7.892
34.4,7.848
34.404,7.844
34.408,7.868
34.412,7.864
34.416,7.796
34.42,7.676
34.424,7.696
34.428,7.996
34.432,8.684
34.436,9.888
34.44,11.264
34.444,12.596
34.448,13.524
34.452,12.772
34.456,11.048
34.46,8.912
34.464,7.764
34.468,7.644
34.472,7.68
34.476,7.808
34.48,8.024
34.484,8.14
34.488,8.16
34.492,8.108
34.496,8.088
34.5,8.064
34.504,7.964
34.508,7.992
34.512,8
34.516,8.008
34.52,7.98
34.524,7.96
34.528,7.992
34.532,8.044
34.536,8
34.54,8.02
34.544,8.06
34.548,8.08
34.552,8.048
34.556,8.052
34.56,8.108
34.564,8.104
34.568,8.112
34.572,8.076
34.576,8.132
34.58,8.152
34.584,8.12
34.588,8.1
34.592,8.148
34.596,8.176
34.6,8.196
34.604,8.14
34.608,8.2
34.612,8.248
34.616,8.224
34.62,8.212
34.624,8.228
34.628,8.256
34.632,8.272
34.636,8.312
34.64,8.312
34.644,8.372
34.648,8.412
34.652,8.384
34.656,8.424
34.66,8.488
34.664,8.572
34.668,8.54
34.672,8.604
34.676,8.676
34.68,8.752
34.684,8.804
34.688,8.848
34.692,8.904
34.696,8.988
34.7,9.044
34.704,9.084
34.708,9.136
34.712,9.232
34.716,9.284
34.72,9.276
34.724,9.252
34.728,9.272
34.732,9.228
34.736,9.128
34.74,9.044
34.744,8.956
34.748,8.88
34.752,8.736
34.756,8.608
34.76,8.52
34.764,8.456
34.768,8.38
34.772,8.272
34.776,8.26
34.78,8.204
34.784,8.164
34.788,8.06
34.792,8.04
34.796,8.056
34.8,8.04
34.804,8.02
34.808,8
34.812,8.016
34.816,8.012
34.82,7.984
34.824,7.984
34.828,8.016
34.832,8.012
34.836,7.996
34.84,8.004
34.844,8.036
34.848,8.02
34.852,7.968
34.856,7.972
34.86,8
34.864,8.008
34.868,7.984
34.872,7.956
34.876,7.988
34.88,8.016
34.884,7.992
34.888,7.968
34.892,7.956
34.896,7.96
34.9,7.956
34.904,7.928
34.908,7.928
34.912,7.948
34.916,7.964
34.92,7.884
34.924,7.908
34.928,7.94
34.932,7.936
34.936,7.92
34.94,7.9
34.944,7.936
34.948,7.936
34.952,7.912
34.956,7.896
34.96,7.916
34.964,7.916
34.968,7.928
34.972,7.9
34.976,7.924
34.98,7.94
34.984,7.92
34.988,7.884
34.992,7.916
34.996,7.9
35,7.932
35.004,7.872
35.008,7.896
35.012,7.924
35.016,7.928
35.02,7.868
35.024,7.884
35.028,7.916
35.032,7.908
35.036,7.9
35.04,7.892
35.044,7.912
35.048,7.936
35.052,7.88
35.056,7.876
35.06,7.9
35.064,7.9
35.068,7.9
35.072,7.86
35.076,7.916
35.08,7.972
35.084,7.912
35.088,7.892
35.092,7.864
35.096,7.904
35.1,7.88
35.104,7.86
35.108,7.876
35.112,7.94
35.116,7.908
35.12,7.852
35.124,7.84
35.128,7.912
35.132,7.92
35.136,7.852
35.14,7.872
35.144,7.896
35.148,7.92
35.152,7.908
35.156,7.876
35.16,7.884
35.164,7.928
35.168,7.892
35.172,7.896
35.176,7.932
35.18,7.904
35.184,7.896
35.188,7.888
35.192,7.936
35.196,7.924
35.2,7.92
35.204,7.9
35.208,7.964
35.212,7.972
35.216,8.008
35.22,7.972
35.224,8.028
35.228,8.184
35.232,8.212
35.236,8.164
35.24,8.136
35.244,8.164
35.248,8.16
35.252,8.088
35.256,8.1
35.26,8.16
35.264,8.096
35.268,8.056
35.272,7.996
35.276,8.02
35.28,8.048
35.284,8.02
35.288,7.968
35.292,8.024
35.296,8
35.3,7.956
35.304,7.944
35.308,7.888
35.312,7.932
35.316,7.912
35.32,7.876
35.324,7.876
35.328,7.9
35.332,7.9
35.336,7.872
35.34,7.86
35.344,7.896
35.348,7.88
35.352,7.86
35.356,7.86
35.36,7.86
35.364,7.9
35.368,7.88
35.372,7.832
35.376,7.904
35.38,7.908
35.384,7.92
35.388,7.912
35.392,7.916
35.396,7.96
35.4,7.944
35.404,7.932
35.408,7.948
35.412,7.952
35.416,7.848
35.42,7.68
35.424,7.736
35.428,8.008
35.432,8.68
35.436,9.808
35.44,11.156
35.444,12.42
35.448,13.472
35.452,12.916
35.456,11.272
35.46,9.06
35.464,7.832
35.468,7.692
35.472,7.74
35.476,7.884
35.48,8.084
35.484,8.216
35.488,8.184
35.492,8.152
35.496,8.12
35.5,8.064
35.504,8.036
35.508,8.056
35.512,8.024
35.516,8.068
35.52,8.052
35.524,8.044
35.528,8.064
35.532,8.028
35.536,8.028
35.54,8.004
35.544,8.052
35.548,8.096
35.552,8.052
35.556,8.056
35.56,8.076
35.564,8.108
35.568,8.064
35.572,8.064
35.576,8.132
35.58,8.168
35.584,8.152
35.588,8.108
35.592,8.12
35.596,8.172
35.6,8.14
35.604,8.136
35.608,8.144
35.612,8.204
35.616,8.22
35.62,8.18
35.624,8.18
35.628,8.212
35.632,8.228
35.636,8.216
35.64,8.232
35.644,8.296
35.648,8.336
35.652,8.324
35.656,8.296
35.66,8.348
35.664,8.424
35.668,8.416
35.672,8.432
35.676,8.516
35.68,8.588
35.684,8.64
35.688,8.672
35.692,8.748
35.696,8.844
35.7,8.844
35.704,8.908
35.708,8.976
35.712,9.08
35.716,9.096
35.72,9.116
35.724,9.148
35.728,9.172
35.732,9.16
35.736,9.084
35.74,9.008
35.744,8.928
35.748,8.848
35.752,8.692
35.756,8.564
35.76,8.516
35.764,8.432
35.768,8.34
35.772,8.216
35.776,8.188
35.78,8.18
35.784,8.096
35.788,7.988
35.792,7.992
35.796,7.96
35.8,7.948
35.804,7.94
35.808,7.936
35.812,7.944
35.816,7.912
35.82,7.888
35.824,7.892
35.828,7.916
35.832,7.924
35.836,7.888
35.84,7.888
35.844,7.884
35.848,7.916
35.852,7.892
35.856,7.852
35.86,7.896
35.864,7.904
35.868,7.872
35.872,7.86
35.876,7.884
35.88,7.888
35.884,7.908
35.888,7.864
35.892,7.836
35.896,7.884
35.9,7.872
35.904,7.904
35.908,7.848
35.912,7.916
35.916,7.884
35.92,7.824
35.924,7.852
35.928,7.9
35.932,7.852
35.936,7.864
35.94,7.856
35.944,7.88
35.948,7.868
35.952,7.816
35.956,7.844
35.96,7.84
35.964,7.888
35.968,7.828
35.972,7.856
35.976,7.876
35.98,7.88
35.984,7.872
35.988,7.828
35.992,7.836
35.996,7.856
36,7.852
36.004,7.84
36.008,7.868
36.012,7.9
36.016,7.892
36.02,7.828
36.024,7.86
36.028,7.888
36.032,7.892
36.036,7.836
36.04,7.844
36.044,7.892
36.048,7.88
36.052,7.864
36.056,7.832
36.06,7.872
36.064,7.888
36.068,7.896
36.072,7.86
36.076,7.88
36.08,7.896
36.084,7.872
36.088,7.872
36.092,7.872
36.096,7.912
36.1,7.888
36.104,7.868
36.108,7.88
36.112,7.92
36.116,7.916
36.12,7.856
36.124,7.864
36.128,7.908
36.132,7.876
36.136,7.864
36.14,7.868
36.144,7.892
36.148,7.908
36.152,7.9
36.156,7.88
36.16,7.924
36.164,7.932
36.168,7.888
36.172,7.944
36.176,8.008
36.18,8.128
36.184,8.16
36.188,8.092
36.192,8.08
36.196,8.096
36.2,8.084
36.204,8.06
36.208,8.1
36.212,8.124
36.216,8.056
36.22,7.992
36.224,7.956
36.228,7.964
36.232,7.984
36.236,7.94
36.24,7.952
36.244,7.94
36.248,7.936
36.252,7.892
36.256,7.812
36.26,7.832
36.264,7.876
36.268,7.852
36.272,7.84
36.276,7.856
36.28,7.872
36.284,7.828
36.288,7.82
36.292,7.864
36.296,7.856
36.3,7.86
36.304,7.82
36.308,7.852
36.312,7.868
36.316,7.864
36.32,7.824
36.324,7.836
36.328,7.868
36.332,7.88
36.336,7.844
36.34,7.844
36.344,7.9
36.348,7.916
36.352,7.876
36.356,7.856
36.36,7.908
36.364,7.908
36.368,7.928
36.372,7.868
36.376,7.804
36.38,7.704
36.384,7.692
36.388,7.856
36.392,8.512
36.396,9.692
36.4,11.112
36.404,12.396
36.408,13.476
36.412,13.168
36.416,11.5
36.42,9.228
36.424,7.912
36.428,7.724
36.432,7.776
36.436,7.82
36.44,7.996
36.444,8.184
36.448,8.184
36.452,8.128
36.456,8.08
36.46,8.072
36.464,8.064
36.468,8.04
36.472,8.016
36.476,8.056
36.48,8.108
36.484,8.06
36.488,8.052
36.492,8.064
36.496,8.108
36.5,8.084
36.504,8.08
36.508,8.08
36.512,8.124
36.516,8.128
36.52,8.104
36.524,8.12
36.528,8.136
36.532,8.156
36.536,8.136
36.54,8.124
36.544,8.18
36.548,8.204
36.552,8.168
36.556,8.156
36.56,8.2
36.564,8.2
36.568,8.184
36.572,8.196
36.576,8.244
36.58,8.272
36.584,8.26
36.588,8.256
36.592,8.304
36.596,8.352
36.6,8.356
36.604,8.336
36.608,8.392
36.612,8.452
36.616,8.476
36.62,8.468
36.624,8.512
36.628,8.576
36.632,8.596
36.636,8.636
36.64,8.652
36.644,8.76
36.648,8.844
36.652,8.844
36.656,8.896
36.66,8.964
36.664,9.044
36.668,9.072
36.672,9.144
36.676,9.216
36.68,9.288
36.684,9.264
36.688,9.208
36.692,9.204
36.696,9.16
36.7,9.064
36.704,8.94
36.708,8.86
36.712,8.788
36.716,8.676
36.72,8.58
36.724,8.464
36.728,8.436
36.732,8.356
36.736,8.264
36.74,8.208
36.744,8.188
36.748,8.16
36.752,8.068
36.756,8.076
36.76,8.06
36.764,8.06
36.768,8.032
36.772,8.024
36.776,8.004
36.78,8.04
36.784,8
36.788,7.968
36.792,8.008
36.796,8.044
36.8,7.992
36.804,7.984
36.808,8.008
36.812,8.016
36.816,8.02
36.82,8.008
36.824,7.98
36.828,7.988
36.832,8.012
36.836,7.98
36.84,7.964
36.844,7.98
36.848,8.02
36.852,7.944
36.856,7.932
36.86,7.968
36.864,7.976
36.868,7.96
36.872,7.932
36.876,7.98
36.88,8
36.884,7.952
36.888,7.932
36.892,7.936
36.896,7.98
36.9,7.972
36.904,7.928
36.908,7.968
36.912,7.968
36.916,7.948
36.92,7.94
36.924,7.932
36.928,7.96
36.932,7.964
36.936,7.952
36.94,7.924
36.944,7.964
36.948,7.916
36.952,7.9
36.956,7.884
36.96,7.924
36.964,7.932
36.968,7.896
36.972,7.888
36.976,7.892
36.98,7.912
36.984,7.928
36.988,7.888
36.992,7.88
36.996,7.928
37,7.916
37.004,7.9
37.008,7.896
37.012,7.936
37.016,7.92
37.02,7.9
37.024,7.912
37.028,7.928
37.032,7.948
37.036,7.908
37.04,7.872
37.044,7.936
37.048,7.924
37.052,7.92
37.056,7.9
37.06,7.928
37.064,7.92
37.068,7.88
37.072,7.86
37.076,7.9
37.08,7.924
37.084,7.888
37.088,7.848
37.092,7.876
37.096,7.916
37.1,7.92
37.104,7.888
37.108,7.872
37.112,7.904
37.116,7.9
37.12,7.892
37.124,7.876
37.128,7.872
37.132,7.932
37.136,7.88
37.14,7.896
37.144,7.916
37.148,7.896
37.152,7.9
37.156,7.864
37.16,7.9
37.164,7.908
37.168,7.892
37.172,7.872
37.176,7.904
37.18,7.916
37.184,7.892
37.188,7.876
37.192,7.868
37.196,7.932
37.2,7.88
37.204,7.868
37.208,7.884
37.212,7.92
37.216,7.884
37.22,7.896
37.224,7.916
37.228,7.916
37.232,7.9
37.236,7.948
37.24,7.912
37.244,7.932
37.248,7.98
37.252,8.012
37.256,8.048
37.26,8.152
37.264,8.184
37.268,8.14
37.272,8.12
37.276,8.088
37.28,8.152
37.284,8.088
37.288,8.08
37.292,8.104
37.296,8.072
37.3,8.004
37.304,7.98
37.308,7.964
37.312,7.96
37.316,7.976
37.32,7.96
37.324,7.944
37.328,7.928
37.332,7.936
37.336,7.844
37.34,7.844
37.344,7.844
37.348,7.86
37.352,7.84
37.356,7.824
37.36,7.832
37.364,7.864
37.368,7.848
37.372,7.84
37.376,7.856
37.38,7.844
37.384,7.82
37.388,7.82
37.392,7.828
37.396,7.864
37.4,7.856
37.404,7.852
37.408,7.852
37.412,7.86
37.416,7.828
37.42,7.844
37.424,7.872
37.428,7.896
37.432,7.896
37.436,7.88
37.44,7.876
37.444,7.804
37.448,7.716
37.452,7.688
37.456,7.8
37.46,8.312
37.464,9.316
37.468,10.684
37.472,11.936
37.476,13.124
37.48,13.204
37.484,11.844
37.488,9.712
37.492,8.156
37.496,7.744
37.5,7.776
37.504,7.792
37.508,7.92
37.512,8.124
37.516,8.176
37.52,8.08
37.524,8.072
37.528,8.056
37.532,8.044
37.536,8.004
37.54,8.004
37.544,8.024
37.548,8.04
37.552,8.016
37.556,8
37.56,8.032
37.564,8.048
37.568,8.04
37.572,8.028
37.576,8.044
37.58,8.036
37.584,8.072
37.588,8.052
37.592,8.064
37.596,8.084
37.6,8.108
37.604,8.088
37.608,8.1
37.612,8.092
37.616,8.12
37.62,8.112
37.624,8.124
37.628,8.168
37.632,8.16
37.636,8.152
37.64,8.136
37.644,8.192
37.648,8.204
37.652,8.192
37.656,8.176
37.66,8.224
37.664,8.256
37.668,8.26
37.672,8.3
37.676,8.316
37.68,8.328
37.684,8.356
37.688,8.34
37.692,8.4
37.696,8.452
37.7,8.472
37.704,8.488
37.708,8.544
37.712,8.616
37.716,8.688
37.72,8.724
37.724,8.764
37.728,8.832
37.732,8.92
37.736,8.932
37.74,9.012
37.744,9.076
37.748,9.136
37.752,9.136
37.756,9.152
37.76,9.168
37.764,9.164
37.768,9.096
37.772,8.988
37.776,8.936
37.78,8.816
37.784,8.688
37.788,8.588
37.792,8.532
37.796,8.464
37.8,8.372
37.804,8.256
37.808,8.22
37.812,8.176
37.816,8.108
37.82,8.064
37.824,8
37.828,8.024
37.832,8.02
37.836,7.956
37.84,7.972
37.844,7.98
37.848,7.94
37.852,7.9
37.856,7.92
37.86,7.916
37.864,7.936
37.868,7.928
37.872,7.908
37.876,7.944
37.88,7.948
37.884,7.944
37.888,7.908
37.892,7.908
37.896,7.968
37.9,7.924
37.904,7.928
37.908,7.916
37.912,7.932
37.916,7.9
37.92,7.876
37.924,7.916
37.928,7.92
37.932,7.928
37.936,7.908
37.94,7.892
37.944,7.908
37.948,7.904
37.952,7.88
37.956,7.864
37.96,7.868
37.964,7.916
37.968,7.864
37.972,7.884
37.976,7.876
37.98,7.88
37.984,7.9
37.988,7.864
37.992,7.876
37.996,7.92
38,7.868
38.004,7.868
38.008,7.856
38.012,7.872
38.016,7.888
38.02,7.852
38.024,7.852
38.028,7.864
38.032,7.896
38.036,7.852
38.04,7.844
38.044,7.86
38.048,7.888
38.052,7.828
38.056,7.82
38.06,7.844
38.064,7.888
38.068,7.868
38.072,7.824
38.076,7.86
38.08,7.876
38.084,7.856
38.088,7.82
38.092,7.844
38.096,7.88
38.1,7.88
38.104,7.82
38.108,7.836
38.112,7.86
38.116,7.824
38.12,7.812
38.124,7.812
38.128,7.84
38.132,7.872
38.136,7.84
38.14,7.808
38.144,7.824
38.148,7.832
38.152,7.832
38.156,7.824
38.16,7.824
38.164,7.848
38.168,7.836
38.172,7.824
38.176,7.832
38.18,7.832
38.184,7.804
38.188,7.772
38.192,7.808
38.196,7.816
38.2,7.804
38.204,7.8
38.208,7.796
38.212,7.832
38.216,7.84
38.22,7.82
38.224,7.824
38.228,7.836
38.232,7.848
38.236,7.78
38.24,7.792
38.244,7.816
38.248,7.82
38.252,7.784
38.256,7.784
38.26,7.844
38.264,7.832
38.268,7.804
38.272,7.792
38.276,7.836
38.28,7.912
38.284,7.884
38.288,7.868
38.292,7.96
38.296,8.076
38.3,8.096
38.304,8.036
38.308,8.024
38.312,8.02
38.316,8.024
38.32,7.996
38.324,8.008
38.328,8.02
38.332,8.02
38.336,7.936
38.34,7.9
38.344,7.852
38.348,7.884
38.352,7.86
38.356,7.888
38.36,7.896
38.364,7.884
38.368,7.828
38.372,7.808
38.376,7.792
38.38,7.78
38.384,7.792
38.388,7.744
38.392,7.76
38.396,7.788
38.4,7.772
38.404,7.74
38.408,7.752
38.412,7.792
38.416,7.772
38.42,7.724
38.424,7.732
38.428,7.788
38.432,7.784
38.436,7.752
38.44,7.748
38.444,7.816
38.448,7.84
38.452,7.828
38.456,7.8
38.46,7.828
38.464,7.864
38.468,7.836
38.472,7.804
38.476,7.816
38.48,7.844
38.484,7.708
38.488,7.592
38.492,7.608
38.496,7.836
38.5,8.412
38.504,9.536
38.508,10.968
38.512,12.264
38.516,13.268
38.52,12.7
38.524,10.976
38.528,9.016
38.532,7.94
38.536,7.744
38.54,7.704
38.544,7.804
38.548,7.888
38.552,8.016
38.556,8.052
38.56,8.096
38.564,8.024
38.568,7.976
38.572,7.932
38.576,7.964
38.58,7.984
38.584,7.996
38.588,7.976
38.592,7.972
38.596,8.004
38.6,8.012
38.604,7.976
38.608,7.988
38.612,8.024
38.616,8.016
38.62,7.96
38.624,7.984
38.628,8.052
38.632,8.044
38.636,8.02
38.64,8.04
38.644,8.056
38.648,8.032
38.652,8.044
38.656,8.036
38.66,8.052
38.664,8.084
38.668,8.088
38.672,8.108
38.676,8.12
38.68,8.148
38.684,8.12
38.688,8.108
38.692,8.148
38.696,8.184
38.7,8.192
38.704,8.184
38.708,8.188
38.712,8.264
38.716,8.252
38.72,8.272
38.724,8.308
38.728,8.34
38.732,8.404
38.736,8.396
38.74,8.432
38.744,8.488
38.748,8.54
38.752,8.58
38.756,8.656
38.76,8.704
38.764,8.76
38.768,8.824
38.772,8.888
38.776,8.94
38.78,8.944
38.784,8.98
38.788,9.048
38.792,9.06
38.796,9.04
38.8,9.068
38.804,8.888
38.808,8.952
38.812,8.792
38.816,8.736
38.82,8.696
38.824,8.696
38.828,8.6
38.832,8.556
38.836,8.42
38.84,8.22
38.844,8.288
38.848,8.204
38.852,8.096
38.856,8.06
38.86,7.988
38.864,8.032
38.868,7.988
38.872,7.976
38.876,7.96
38.88,7.988
38.884,7.932
38.888,7.904
38.892,7.948
38.896,7.924
38.9,7.916
38.904,7.876
38.908,7.9
38.912,7.928
38.916,7.952
38.92,7.896
38.924,7.928
38.928,7.92
38.932,7.94
38.936,7.892
38.94,7.908
38.944,7.928
38.948,7.948
38.952,7.928
38.956,7.928
38.96,7.936
38.964,7.92
38.968,7.904
38.972,7.92
38.976,7.928
38.98,7.944
38.984,7.924
38.988,7.948
38.992,7.972
38.996,7.976
39,7.944
39.004,7.904
39.008,7.896
39.012,7.948
39.016,7.92
39.02,7.924
39.024,7.92
39.028,7.956
39.032,7.96
39.036,7.892
39.04,7.9
39.044,7.896
39.048,7.924
39.052,7.904
39.056,7.876
39.06,7.92
39.064,7.908
39.068,7.904
39.072,7.856
39.076,7.868
39.08,7.956
39.084,7.916
39.088,7.872
39.092,7.892
39.096,7.888
39.1,7.872
39.104,7.868
39.108,7.872
39.112,7.932
39.116,7.892
39.12,7.872
39.124,7.888
39.128,7.908
39.132,7.908
39.136,7.88
39.14,7.872
39.144,7.94
39.148,7.94
39.152,7.896
39.156,7.852
39.16,7.924
39.164,7.904
39.168,7.88
39.172,7.856
