0,9.052
0.004,9.108
0.008,9.172
0.012,9.2
0.016,9.204
0.02,9.208
0.024,9.212
0.028,9.192
0.032,9.132
0.036,9.096
0.04,9.072
0.044,9
0.048,8.888
0.052,8.852
0.056,8.788
0.06,8.756
0.064,8.664
0.068,8.62
0.072,8.628
0.076,8.6
0.08,8.572
0.084,8.548
0.088,8.552
0.092,8.54
0.096,8.528
0.1,8.54
0.104,8.548
0.108,8.54
0.112,8.548
0.116,8.54
0.12,8.58
0.124,8.604
0.128,8.58
0.132,8.58
0.136,8.608
0.14,8.64
0.144,8.636
0.148,8.632
0.152,8.624
0.156,8.656
0.16,8.672
0.164,8.644
0.168,8.62
0.172,8.652
0.176,8.668
0.18,8.668
0.184,8.684
0.188,8.696
0.192,8.708
0.196,8.696
0.2,8.68
0.204,8.696
0.208,8.728
0.212,8.736
0.216,8.708
0.22,8.696
0.224,8.732
0.228,8.728
0.232,8.704
0.236,8.716
0.24,8.748
0.244,8.744
0.248,8.72
0.252,8.756
0.256,8.752
0.26,8.768
0.264,8.736
0.268,8.744
0.272,8.756
0.276,8.788
0.28,8.76
0.284,8.768
0.288,8.756
0.292,8.8
0.296,8.792
0.3,8.76
0.304,8.76
0.308,8.768
0.312,8.804
0.316,8.78
0.32,8.776
0.324,8.804
0.328,8.8
0.332,8.784
0.336,8.784
0.34,8.832
0.344,8.812
0.348,8.792
0.352,8.808
0.356,8.84
0.36,8.832
0.364,8.808
0.368,8.816
0.372,8.828
0.376,8.848
0.38,8.824
0.384,8.804
0.388,8.844
0.392,8.848
0.396,8.836
0.4,8.844
0.404,8.852
0.408,8.868
0.412,8.852
0.416,8.828
0.42,8.848
0.424,8.892
0.428,8.86
0.432,8.84
0.436,8.836
0.44,8.892
0.444,8.892
0.448,8.864
0.452,8.856
0.456,8.884
0.46,8.888
0.464,8.876
0.468,8.884
0.472,8.9
0.476,8.924
0.48,8.916
0.484,8.888
0.488,8.908
0.492,8.928
0.496,8.896
0.5,8.864
0.504,8.852
0.508,8.908
0.512,8.9
0.516,8.9
0.52,8.908
0.524,8.928
0.528,8.92
0.532,8.888
0.536,8.912
0.54,8.916
0.544,8.9
0.548,8.88
0.552,8.912
0.556,8.94
0.56,8.932
0.564,8.916
0.568,8.932
0.572,8.94
0.576,8.968
0.58,8.928
0.584,8.916
0.588,8.912
0.592,8.948
0.596,8.944
0.6,8.94
0.604,8.944
0.608,8.956
0.612,8.948
0.616,8.924
0.62,8.948
0.624,8.964
0.628,8.952
0.632,8.928
0.636,8.964
0.64,8.98
0.644,8.996
0.648,9.016
0.652,9.02
0.656,9.072
0.66,9.088
0.664,9.08
0.668,9.064
0.672,9.144
0.676,9.172
0.68,9.2
0.684,9.212
0.688,9.236
0.692,9.252
0.696,9.24
0.7,9.196
0.704,9.22
0.708,9.22
0.712,9.168
0.716,9.096
0.72,9.076
0.724,9.104
0.728,9.012
0.732,8.948
0.736,8.928
0.74,8.964
0.744,8.976
0.748,8.952
0.752,8.952
0.756,8.968
0.76,8.964
0.764,8.964
0.768,8.952
0.772,8.96
0.776,8.976
0.78,8.944
0.784,8.936
0.788,8.928
0.792,8.996
0.796,8.972
0.8,8.9
0.804,8.784
0.808,8.72
0.812,8.88
0.816,9.124
0.82,9.508
0.824,10.112
0.828,10.664
0.832,11.272
0.836,11.912
0.84,11.816
0.844,10.852
0.848,9.876
0.852,9.384
0.856,9.128
0.86,8.98
0.864,8.944
0.868,9.012
0.872,9.128
0.876,9.132
0.88,9.1
0.884,9.076
0.888,9.068
0.892,9.072
0.896,9.088
0.9,9.068
0.904,9.072
0.908,9.072
0.912,9.088
0.916,9.084
0.92,9.096
0.924,9.124
0.928,9.124
0.932,9.096
0.936,9.092
0.94,9.128
0.944,9.116
0.948,9.132
0.952,9.128
0.956,9.144
0.96,9.152
0.964,9.172
0.968,9.152
0.972,9.188
0.976,9.196
0.98,9.18
0.984,9.204
0.988,9.22
0.992,9.232
0.996,9.22
1,9.224
1.004,9.264
1.008,9.308
1.012,9.292
1.016,9.268
1.02,9.3
1.024,9.372
1.028,9.388
1.032,9.372
1.036,9.384
1.04,9.432
1.044,9.452
1.048,9.448
1.052,9.484
1.056,9.532
1.06,9.544
1.064,9.568
1.068,9.612
1.072,9.636
1.076,9.68
1.08,9.74
1.084,9.768
1.088,9.824
1.092,9.944
1.096,9.98
1.1,9.984
1.104,9.98
1.108,9.928
1.112,9.912
1.116,9.972
1.12,10.044
1.124,10.104
1.128,10.08
1.132,10.048
1.136,10.06
1.14,10.016
1.144,9.936
1.148,9.836
1.152,9.8
1.156,9.748
1.16,9.692
1.164,9.584
1.168,9.488
1.172,9.428
1.176,9.464
1.18,9.444
1.184,9.4
1.188,9.396
1.192,9.348
1.196,9.268
1.2,9.208
1.204,9.252
1.208,9.456
1.212,9.404
1.216,9.288
1.22,9.296
1.224,9.336
1.228,9.376
1.232,9.276
1.236,9.24
1.24,9.26
1.244,9.284
1.248,9.376
1.252,9.252
1.256,9.016
1.26,9.06
1.264,9.292
1.268,9.36
1.272,9.324
1.276,9.256
1.28,9.172
1.284,9.132
1.288,9.224
1.292,9.328
1.296,9.296
1.3,9.256
1.304,9.208
1.308,9.264
1.312,9.196
1.316,9.28
1.32,9.224
1.324,9.216
1.328,9.272
1.332,9.32
1.336,9.284
1.34,9.372
1.344,9.28
1.348,9.3
1.352,9.324
1.356,9.292
1.36,9.24
1.364,9.212
1.368,9.308
1.372,9.32
1.376,9.288
1.38,9.26
1.384,9.196
1.388,9.132
1.392,9.18
1.396,9.308
1.4,9.336
1.404,9.34
1.408,9.264
1.412,9.24
1.416,9.224
1.42,9.216
1.424,9.292
1.428,9.308
1.432,9.272
1.436,9.236
1.44,9.32
1.444,9.428
1.448,9.272
1.452,9.068
1.456,9.284
1.46,9.388
1.464,9.384
1.468,9.252
1.472,9.268
1.476,9.296
1.48,9.232
1.484,9.188
1.488,9.34
1.492,9.384
1.496,9.292
1.5,9.192
1.504,9.236
1.508,9.316
1.512,9.244
1.516,9.244
1.52,9.24
1.524,9.244
1.528,9.284
1.532,9.392
1.536,9.332
1.54,9.26
1.544,9.292
1.548,9.208
1.552,9.276
1.556,9.312
1.56,9.204
1.564,9.192
1.568,9.264
1.572,9.264
1.576,9.22
1.58,9.276
1.584,9.384
1.588,9.464
1.592,9.492
1.596,9.292
1.6,9.232
1.604,9.168
1.608,9.252
1.612,9.336
1.616,9.324
1.62,9.364
1.624,9.364
1.628,9.3
1.632,9.38
1.636,9.332
1.64,9.304
1.644,9.428
1.648,9.428
1.652,9.452
1.656,9.4
1.66,9.408
1.664,9.416
1.668,9.42
1.672,9.396
1.676,9.428
1.68,9.448
1.684,9.304
1.688,9.348
1.692,9.58
1.696,9.588
1.7,9.408
1.704,9.292
1.708,9.412
1.712,9.428
1.716,9.428
1.72,9.512
1.724,9.532
1.728,9.532
1.732,9.604
1.736,9.656
1.74,9.676
1.744,9.608
1.748,9.64
1.752,9.552
1.756,9.532
1.76,9.572
1.764,9.548
1.768,9.468
1.772,9.4
1.776,9.288
1.78,9.26
1.784,9.356
1.788,9.304
1.792,9.252
1.796,9.308
1.8,9.228
1.804,9.188
1.808,9.288
1.812,9.204
1.816,9.18
1.82,9.276
1.824,9.268
1.828,9.304
1.832,9.172
1.836,9.116
1.84,9.184
1.844,9.324
1.848,9.232
1.852,9.068
1.856,8.816
1.86,9.052
1.864,9.324
1.868,9.62
1.872,10.268
1.876,10.904
1.88,11.488
1.884,12.2
1.888,12.336
1.892,11.412
1.896,10.364
1.9,9.88
1.904,9.584
1.908,9.416
1.912,9.312
1.916,9.212
1.92,9.232
1.924,9.324
1.928,9.356
1.932,9.296
1.936,9.216
1.94,9.228
1.944,9.188
1.948,9.204
1.952,9.228
1.956,9.308
1.96,9.316
1.964,9.272
1.968,9.332
1.972,9.208
1.976,9.168
1.98,9.244
1.984,9.2
1.988,9.292
1.992,9.232
1.996,9.276
2,9.296
2.004,9.296
2.008,9.356
2.012,9.304
2.016,9.252
2.02,9.28
2.024,9.22
2.028,9.232
2.032,9.264
2.036,9.396
2.04,9.46
2.044,9.292
2.048,9.336
2.052,9.22
2.056,9.36
2.06,9.444
2.064,9.364
2.068,9.368
2.072,9.384
2.076,9.484
2.08,9.468
2.084,9.38
2.088,9.448
2.092,9.444
2.096,9.492
2.1,9.596
2.104,9.508
2.108,9.632
2.112,9.664
2.116,9.56
2.12,9.52
2.124,9.652
2.128,9.712
2.132,9.736
2.136,9.736
2.14,9.832
2.144,9.848
2.148,9.836
2.152,9.896
2.156,9.912
2.16,10.024
2.164,9.916
2.168,9.936
2.172,9.984
2.176,10.116
2.18,9.98
2.184,9.924
2.188,9.864
2.192,9.848
2.196,9.768
2.2,9.608
2.204,9.544
2.208,9.496
2.212,9.568
2.216,9.368
2.22,9.24
2.224,9.236
2.228,9.152
2.232,9.096
2.236,9.132
2.24,9.056
2.244,9
2.248,9.008
2.252,8.976
2.256,9.004
2.26,9.04
2.264,9.076
2.268,8.988
2.272,8.896
2.276,8.944
2.28,9.008
2.284,8.968
2.288,8.948
2.292,9.052
2.296,9.104
2.3,9.036
2.304,8.796
2.308,8.904
2.312,8.932
2.316,8.976
2.32,8.988
2.324,9.032
2.328,9.08
2.332,8.94
2.336,8.896
2.34,8.956
2.344,8.892
2.348,8.96
2.352,9.004
2.356,8.924
2.36,8.92
2.364,9.036
2.368,8.964
2.372,8.936
2.376,8.956
2.38,8.892
2.384,8.888
2.388,8.9
2.392,8.892
2.396,8.848
2.4,8.904
2.404,8.944
2.408,8.82
2.412,8.904
2.416,8.856
2.42,8.804
2.424,8.892
2.428,8.86
2.432,8.74
2.436,8.764
2.44,8.836
2.444,8.82
2.448,8.716
2.452,8.812
2.456,8.844
2.46,8.676
2.464,8.792
2.468,8.804
2.472,8.704
2.476,8.708
2.48,8.736
2.484,8.74
2.488,8.732
2.492,8.688
2.496,8.732
2.5,8.692
2.504,8.696
2.508,8.7
2.512,8.708
2.516,8.648
2.52,8.692
2.524,8.692
2.528,8.708
2.532,8.724
2.536,8.688
2.54,8.616
2.544,8.692
2.548,8.648
2.552,8.684
2.556,8.644
2.56,8.564
2.564,8.548
2.568,8.624
2.572,8.604
2.576,8.604
2.58,8.58
2.584,8.636
2.588,8.616
2.592,8.604
2.596,8.564
2.6,8.644
2.604,8.636
2.608,8.492
2.612,8.524
2.616,8.656
2.62,8.616
2.624,8.5
2.628,8.588
2.632,8.512
2.636,8.468
2.64,8.548
2.644,8.488
2.648,8.536
2.652,8.612
2.656,8.736
2.66,8.64
2.664,8.476
2.668,8.596
2.672,8.652
2.676,8.656
2.68,8.664
2.684,8.68
2.688,8.804
2.692,8.788
2.696,8.688
2.7,8.716
2.704,8.66
2.708,8.712
2.712,8.784
2.716,8.776
2.72,8.528
2.724,8.596
2.728,8.672
2.732,8.44
2.736,8.308
2.74,8.36
2.744,8.408
2.748,8.4
2.752,8.356
2.756,8.388
2.76,8.288
2.764,8.268
2.768,8.332
2.772,8.32
2.776,8.356
2.78,8.348
2.784,8.308
2.788,8.236
2.792,8.284
2.796,8.316
2.8,8.276
2.804,8.244
2.808,8.116
2.812,7.992
2.816,8.136
2.82,8.432
2.824,8.768
2.828,9.336
2.832,9.936
2.836,10.692
2.84,11.472
2.844,11.52
2.848,10.568
2.852,9.488
2.856,9.008
2.86,8.64
2.864,8.368
2.868,8.3
2.872,8.332
2.876,8.364
2.88,8.36
2.884,8.372
2.888,8.356
2.892,8.308
2.896,8.308
2.9,8.308
2.904,8.228
2.908,8.292
2.912,8.264
2.916,8.24
2.92,8.248
2.924,8.308
2.928,8.304
2.932,8.232
2.936,8.252
2.94,8.212
2.944,8.276
2.948,8.316
2.952,8.284
2.956,8.304
2.96,8.284
2.964,8.316
2.968,8.22
2.972,8.3
2.976,8.272
2.98,8.348
2.984,8.368
2.988,8.356
2.992,8.276
2.996,8.32
3,8.356
3.004,8.372
3.008,8.296
3.012,8.332
3.016,8.336
3.02,8.312
3.024,8.42
3.028,8.488
3.032,8.396
3.036,8.384
3.04,8.448
3.044,8.424
3.048,8.504
3.052,8.524
3.056,8.504
3.06,8.64
3.064,8.548
3.068,8.556
3.072,8.66
3.076,8.684
3.08,8.716
3.084,8.744
3.088,8.82
3.092,8.796
3.096,8.82
3.1,8.9
3.104,8.924
3.108,8.904
3.112,8.936
3.116,8.968
3.12,8.996
3.124,9.048
3.128,9.06
3.132,9.028
3.136,9.08
3.14,8.92
3.144,8.956
3.148,8.876
3.152,8.784
3.156,8.684
3.16,8.576
3.164,8.52
3.168,8.424
3.172,8.388
3.176,8.332
3.18,8.184
3.184,8.188
3.188,8.144
3.192,8.168
3.196,8.112
3.2,8
3.204,8.072
3.208,7.996
3.212,8.028
3.216,8
3.22,7.98
3.224,8.076
3.228,8.048
3.232,8.048
3.236,8.068
3.24,8.028
3.244,8.008
3.248,7.932
3.252,7.972
3.256,8.032
3.26,7.956
3.264,7.928
3.268,7.932
3.272,7.976
3.276,8.048
3.28,7.996
3.284,7.924
3.288,7.96
3.292,8.06
3.296,8.012
3.3,7.936
3.304,8.072
3.308,7.996
3.312,7.892
3.316,7.9
3.32,7.944
3.324,8.004
3.328,8.04
3.332,7.932
3.336,7.912
3.34,7.912
3.344,7.944
3.348,7.96
3.352,7.908
3.356,7.884
3.36,7.884
3.364,7.92
3.368,7.976
3.372,7.892
3.376,7.804
3.38,7.84
3.384,7.852
3.388,7.916
3.392,7.876
3.396,7.82
3.4,7.776
3.404,7.86
3.408,7.848
3.412,7.832
3.416,7.796
3.42,7.804
3.424,7.832
3.428,7.756
3.432,7.756
3.436,7.836
3.44,7.848
3.444,7.756
3.448,7.712
3.452,7.732
3.456,7.764
3.46,7.788
3.464,7.752
3.468,7.76
3.472,7.768
3.476,7.744
3.48,7.664
3.484,7.688
3.488,7.772
3.492,7.76
3.496,7.78
3.5,7.792
3.504,7.732
3.508,7.696
3.512,7.712
3.516,7.636
3.52,7.692
3.524,7.692
3.528,7.756
3.532,7.692
3.536,7.732
3.54,7.704
3.544,7.744
3.548,7.648
3.552,7.664
3.556,7.66
3.56,7.74
3.564,7.76
3.568,7.772
3.572,7.84
3.576,7.752
3.58,7.708
3.584,7.856
3.588,7.872
3.592,7.824
3.596,7.932
3.6,7.884
3.604,7.904
3.608,7.932
3.612,7.94
3.616,7.92
3.62,7.888
3.624,7.852
3.628,7.832
3.632,7.832
3.636,7.852
3.64,7.872
3.644,7.696
3.648,7.652
3.652,7.604
3.656,7.568
3.66,7.58
3.664,7.616
3.668,7.588
3.672,7.556
3.676,7.524
3.68,7.552
3.684,7.544
3.688,7.596
3.692,7.664
3.696,7.604
3.7,7.524
3.704,7.56
3.708,7.568
3.712,7.632
3.716,7.492
3.72,7.34
3.724,7.26
3.728,7.464
3.732,7.788
3.736,8.296
3.74,8.968
3.744,9.544
3.748,10.34
3.752,10.888
3.756,10.384
3.76,9.316
3.764,8.56
3.768,8.136
3.772,7.784
3.776,7.672
3.78,7.676
3.784,7.744
3.788,7.72
3.792,7.74
3.796,7.792
3.8,7.74
3.804,7.692
3.808,7.636
3.812,7.692
3.816,7.648
3.82,7.688
3.824,7.676
3.828,7.616
3.832,7.628
3.836,7.688
3.84,7.688
3.844,7.688
3.848,7.684
3.852,7.72
3.856,7.74
3.86,7.66
3.864,7.684
3.868,7.696
3.872,7.712
3.876,7.776
3.88,7.776
3.884,7.74
3.888,7.74
3.892,7.804
3.896,7.844
3.9,7.844
3.904,7.852
3.908,7.824
3.912,7.84
3.916,7.848
3.92,7.872
3.924,7.932
3.928,7.98
3.932,7.988
3.936,8.028
3.94,7.976
3.944,7.912
3.948,7.968
3.952,8.028
3.956,8.104
3.96,8.02
3.964,8.036
3.968,8.088
3.972,8.184
3.976,8.264
3.98,8.344
3.984,8.308
3.988,8.276
3.992,8.268
3.996,8.316
4,8.26
4.004,8.372
4.008,8.48
4.012,8.548
4.016,8.524
4.02,8.528
4.024,8.572
4.028,8.584
4.032,8.572
4.036,8.548
4.04,8.492
4.044,8.492
4.048,8.48
4.052,8.456
4.056,8.392
4.06,8.324
4.064,8.292
4.068,8.188
4.072,8.288
4.076,8.156
4.08,8.108
4.084,8.028
4.088,7.876
4.092,7.632
4.096,7.676
4.1,7.788
4.104,7.62
4.108,7.384
4.112,7.296
4.116,7.236
4.12,7.168
4.124,6.984
4.128,6.824
4.132,6.816
4.136,7.048
4.14,7.128
4.144,7.104
4.148,7.132
4.152,7.248
4.156,7.256
4.16,7.368
4.164,7.468
4.168,7.46
4.172,7.476
4.176,7.5
4.18,7.604
4.184,7.684
4.188,7.7
4.192,7.712
4.196,7.604
4.2,7.584
4.204,7.64
4.208,7.708
4.212,7.6
4.216,7.632
4.22,7.616
4.224,7.628
4.228,7.688
4.232,7.66
4.236,7.656
4.24,7.732
4.244,7.744
4.248,7.628
4.252,7.672
4.256,7.784
4.26,7.8
4.264,7.764
4.268,7.748
4.272,7.708
4.276,7.756
4.28,7.76
4.284,7.712
4.288,7.54
4.292,7.6
4.296,7.732
4.3,7.952
4.304,7.86
4.308,7.788
4.312,7.744
4.316,7.84
4.32,7.648
4.324,7.612
4.328,7.692
4.332,7.832
4.336,7.76
4.34,7.876
4.344,7.956
4.348,7.844
4.352,7.688
4.356,7.684
4.36,7.74
4.364,7.56
4.368,7.624
4.372,7.82
4.376,7.744
4.38,7.7
4.384,7.724
4.388,7.524
4.392,7.784
4.396,7.672
4.4,7.572
4.404,7.772
4.408,7.676
4.412,7.428
4.416,7.408
4.42,7.78
4.424,7.672
4.428,7.684
4.432,7.62
4.436,7.748
4.44,7.828
4.444,7.828
4.448,7.848
4.452,7.94
4.456,7.844
4.46,7.916
4.464,7.908
4.468,7.852
4.472,7.848
4.476,7.924
4.48,8.024
4.484,7.98
4.488,7.944
4.492,7.96
4.496,7.844
4.5,7.888
4.504,7.904
4.508,7.996
4.512,7.972
4.516,7.844
4.52,7.72
4.524,7.768
4.528,7.772
4.532,7.728
4.536,7.756
4.54,7.728
4.544,7.624
4.548,7.592
4.552,7.628
4.556,7.74
4.56,7.796
4.564,7.732
4.568,7.612
4.572,7.664
4.576,7.732
4.58,7.756
4.584,7.66
4.588,7.708
4.592,7.672
4.596,7.46
4.6,7.516
4.604,7.868
4.608,8.196
4.612,8.396
4.616,8.904
4.62,9.508
4.624,10.304
4.628,10.788
4.632,10.308
4.636,9.168
4.64,8.408
4.644,8.072
4.648,7.84
4.652,7.716
4.656,7.72
4.66,7.808
4.664,7.884
4.668,7.888
4.672,7.892
4.676,8
4.68,8.004
4.684,7.912
4.688,7.88
4.692,7.96
4.696,8.008
4.7,7.924
4.704,7.908
4.708,7.888
4.712,7.872
4.716,7.88
4.72,7.904
4.724,7.908
4.728,7.88
4.732,7.94
4.736,8.016
4.74,8.052
4.744,8.008
4.748,7.976
4.752,8.056
4.756,8.08
4.76,8.04
4.764,7.968
4.768,7.928
4.772,7.972
4.776,7.992
4.78,8.008
4.784,7.996
4.788,8.044
4.792,8.028
4.796,8.056
4.8,7.992
4.804,8.064
4.808,8.208
4.812,8.408
4.816,8.424
4.82,8.28
4.824,8.248
4.828,8.328
4.832,8.34
4.836,8.288
4.84,8.168
4.844,8.268
4.848,8.488
4.852,8.432
4.856,8.36
4.86,8.904
4.864,9.432
4.868,9.22
4.872,8.588
4.876,8.188
4.88,8.392
4.884,8.664
4.888,8.852
4.892,8.732
4.896,8.688
4.9,8.732
4.904,8.892
4.908,9.06
4.912,9.032
4.916,8.884
4.92,8.72
4.924,8.632
4.928,8.596
4.932,8.604
4.936,8.608
4.94,8.56
4.944,8.504
4.948,8.412
4.952,8.38
4.956,8.268
4.96,8.208
4.964,8.144
4.968,8.104
4.972,8.088
4.976,8.116
4.98,8.044
4.984,7.98
4.988,7.988
4.992,7.992
4.996,8.004
5,8.012
5.004,7.98
5.008,8.024
5.012,8.036
5.016,7.988
5.02,8.028
5.024,8.016
5.028,8.016
5.032,8.02
5.036,8.016
5.04,8.048
5.044,8.036
5.048,8.036
5.052,8.008
5.056,8.036
5.06,8.048
5.064,8.02
5.068,8.024
5.072,8.04
5.076,8.044
5.08,8.044
5.084,8.024
5.088,8.044
5.092,8.068
5.096,8.036
5.1,8.016
5.104,8.012
5.108,8.056
5.112,8.02
5.116,8.008
5.12,8.032
5.124,8.056
5.128,8.068
5.132,8.02
5.136,8.028
5.14,8.02
5.144,8.024
5.148,8.012
5.152,7.996
5.156,8
5.16,8.012
5.164,7.996
5.168,7.988
5.172,8.004
5.176,8.016
5.18,7.972
5.184,7.98
5.188,7.992
5.192,8.008
5.196,8.016
5.2,8.012
5.204,8.016
5.208,8.04
5.212,8.032
5.216,8.036
5.22,8.02
5.224,8.048
5.228,8.052
5.232,8.032
5.236,8.06
5.24,8.06
5.244,8.06
5.248,8.04
5.252,8.04
5.256,8.064
5.26,8.084
5.264,8.06
5.268,8.048
5.272,8.064
5.276,8.06
5.28,8.068
5.284,8.052
5.288,8.116
5.292,8.16
5.296,8.144
5.3,8.152
5.304,8.148
5.308,8.196
5.312,8.2
5.316,8.224
5.32,8.268
5.324,8.312
5.328,8.312
5.332,8.304
5.336,8.296
5.34,8.296
5.344,8.28
5.348,8.276
5.352,8.252
5.356,8.22
5.36,8.184
5.364,8.12
5.368,8.064
5.372,8.024
5.376,8.016
5.38,7.996
5.384,7.992
5.388,8.012
5.392,8.02
5.396,8.008
5.4,7.98
5.404,7.98
5.408,8.004
5.412,8
5.416,7.976
5.42,7.996
5.424,8.004
5.428,8.004
5.432,7.992
5.436,7.992
5.44,7.948
5.444,7.78
5.448,7.708
5.452,7.876
5.456,8.196
5.46,8.632
5.464,9.24
5.468,9.816
5.472,10.468
5.476,11.016
5.48,10.768
5.484,9.676
5.488,8.832
5.492,8.432
5.496,8.148
5.5,7.976
5.504,7.952
5.508,8.06
5.512,8.148
5.516,8.16
5.52,8.152
5.524,8.192
5.528,8.128
5.532,8.096
5.536,8.104
5.54,8.124
5.544,8.14
5.548,8.12
5.552,8.12
5.556,8.14
5.56,8.164
5.564,8.164
5.568,8.136
5.572,8.168
5.576,8.176
5.58,8.16
5.584,8.184
5.588,8.2
5.592,8.22
5.596,8.2
5.6,8.188
5.604,8.2
5.608,8.216
5.612,8.232
5.616,8.216
5.62,8.228
5.624,8.244
5.628,8.252
5.632,8.256
5.636,8.268
5.64,8.288
5.644,8.308
5.648,8.312
5.652,8.304
5.656,8.336
5.66,8.352
5.664,8.36
5.668,8.376
5.672,8.412
5.676,8.436
5.68,8.444
5.684,8.428
5.688,8.488
5.692,8.552
5.696,8.552
5.7,8.58
5.704,8.616
5.708,8.676
5.712,8.708
5.716,8.7
5.72,8.768
5.724,8.808
5.728,8.836
5.732,8.868
5.736,8.904
5.74,8.94
5.744,8.956
5.748,8.972
5.752,8.996
5.756,9.06
5.76,9.088
5.764,9.084
5.768,9.052
5.772,9.036
5.776,9.004
5.78,8.928
5.784,8.848
5.788,8.764
5.792,8.708
5.796,8.616
5.8,8.532
5.804,8.472
5.808,8.432
5.812,8.36
5.816,8.3
5.82,8.272
5.824,8.276
5.828,8.236
5.832,8.192
5.836,8.188
5.84,8.18
5.844,8.172
5.848,8.156
5.852,8.14
5.856,8.16
5.86,8.176
5.864,8.16
5.868,8.156
5.872,8.136
5.876,8.16
5.88,8.152
5.884,8.136
5.888,8.164
5.892,8.168
5.896,8.144
5.9,8.152
5.904,8.176
5.908,8.184
5.912,8.172
5.916,8.164
5.92,8.172
5.924,8.18
5.928,8.204
5.932,8.172
5.936,8.144
5.94,8.188
5.944,8.176
5.948,8.164
5.952,8.164
5.956,8.16
5.96,8.192
5.964,8.172
5.968,8.148
5.972,8.156
5.976,8.152
5.98,8.156
5.984,8.116
5.988,8.148
5.992,8.164
5.996,8.156
6,8.12
6.004,8.116
6.008,8.148
6.012,8.14
6.016,8.096
6.02,8.096
6.024,8.108
6.028,8.104
6.032,8.1
6.036,8.1
6.04,8.104
6.044,8.108
6.048,8.088
6.052,8.048
6.056,8.076
6.06,8.112
6.064,8.06
6.068,8.076
6.072,8.06
6.076,8.092
6.08,8.08
6.084,8.068
6.088,8.048
6.092,8.088
6.096,8.076
6.1,8.064
6.104,8.056
6.108,8.08
6.112,8.076
6.116,8.048
6.12,8.08
6.124,8.104
6.128,8.068
6.132,8.044
6.136,8.056
6.14,8.06
6.144,8.06
6.148,8.048
6.152,8.036
6.156,8.048
6.16,8.076
6.164,8.036
6.168,8.024
6.172,8.072
6.176,8.112
6.18,8.132
6.184,8.136
6.188,8.164
6.192,8.172
6.196,8.18
6.2,8.196
6.204,8.228
6.208,8.256
6.212,8.276
6.216,8.252
6.22,8.288
6.224,8.328
6.228,8.284
6.232,8.228
6.236,8.204
6.24,8.208
6.244,8.168
6.248,8.14
6.252,8.128
6.256,8.084
6.26,8.012
6.264,7.984
6.268,7.956
6.272,7.968
6.276,7.98
6.28,7.94
6.284,7.916
6.288,7.94
6.292,7.96
6.296,7.94
6.3,7.928
6.304,7.916
6.308,7.948
6.312,7.94
6.316,7.916
6.32,7.908
6.324,7.952
6.328,7.912
6.332,7.796
6.336,7.676
6.34,7.7
6.344,7.928
6.348,8.244
6.352,8.712
6.356,9.368
6.36,9.972
6.364,10.696
6.368,11.056
6.372,10.44
6.376,9.384
6.38,8.684
6.384,8.292
6.388,8.06
6.392,7.936
6.396,7.936
6.4,8.016
6.404,8.096
6.408,8.092
6.412,8.044
6.416,8.016
6.42,8.004
6.424,8.024
6.428,8.04
6.432,8.008
6.436,7.992
6.44,8.02
6.444,8.032
6.448,8
6.452,8
6.456,8.008
6.46,8.036
6.464,8.04
6.468,8.028
6.472,8.048
6.476,8.064
6.48,8.064
6.484,8.024
6.488,8.06
6.492,8.092
6.496,8.072
6.5,8.06
6.504,8.076
6.508,8.1
6.512,8.128
6.516,8.096
6.52,8.072
6.524,8.104
6.528,8.112
6.532,8.112
6.536,8.128
6.54,8.14
6.544,8.164
6.548,8.148
6.552,8.156
6.556,8.216
6.56,8.228
6.564,8.224
6.568,8.256
6.572,8.292
6.576,8.336
6.58,8.344
6.584,8.336
6.588,8.404
6.592,8.436
6.596,8.46
6.6,8.496
6.604,8.52
6.608,8.572
6.612,8.58
6.616,8.604
6.62,8.644
6.624,8.688
6.628,8.712
6.632,8.736
6.636,8.756
6.64,8.824
6.644,8.856
6.648,8.852
6.652,8.872
6.656,8.856
6.66,8.876
6.664,8.852
6.668,8.776
6.672,8.736
6.676,8.648
6.68,8.592
6.684,8.5
6.688,8.416
6.692,8.348
6.696,8.26
6.7,8.188
6.704,8.176
6.708,8.144
6.712,8.072
6.716,8.04
6.72,8.012
6.724,8.04
6.728,8
6.732,7.984
6.736,7.984
6.74,7.984
6.744,7.972
6.748,7.964
6.752,7.952
6.756,7.944
6.76,7.988
6.764,7.976
6.768,7.96
6.772,7.996
6.776,7.984
6.78,7.988
6.784,7.948
6.788,7.972
6.792,8.008
6.796,7.956
6.8,7.928
6.804,7.968
6.808,7.98
6.812,7.988
6.816,7.968
6.82,7.968
6.824,7.976
6.828,7.96
6.832,7.968
6.836,7.952
6.84,7.972
6.844,7.972
6.848,7.936
6.852,7.924
6.856,7.968
6.86,7.956
6.864,7.936
6.868,7.948
6.872,7.96
6.876,7.976
6.88,7.964
6.884,7.928
6.888,7.94
6.892,7.944
6.896,7.94
6.9,7.9
6.904,7.928
6.908,7.924
6.912,7.916
6.916,7.888
6.92,7.876
6.924,7.928
6.928,7.896
6.932,7.888
6.936,7.888
6.94,7.904
6.944,7.928
6.948,7.896
6.952,7.872
6.956,7.888
6.96,7.888
6.964,7.868
6.968,7.876
6.972,7.864
6.976,7.88
6.98,7.884
6.984,7.868
6.988,7.908
6.992,7.896
6.996,7.884
7,7.872
7.004,7.888
7.008,7.892
7.012,7.896
7.016,7.844
7.02,7.864
7.024,7.864
7.028,7.896
7.032,7.836
7.036,7.872
7.04,7.864
7.044,7.88
7.048,7.856
7.052,7.872
7.056,7.88
7.06,7.868
7.064,7.864
7.068,7.848
7.072,7.88
7.076,7.888
7.08,7.876
7.084,7.844
7.088,7.872
7.092,7.864
7.096,7.864
7.1,7.848
7.104,7.904
7.108,7.968
7.112,7.992
7.116,7.984
7.12,7.996
7.124,8
7.128,8.024
7.132,8.048
7.136,8.104
7.14,8.076
7.144,8.04
7.148,8.004
7.152,7.96
7.156,7.996
7.16,7.984
7.164,7.932
7.168,7.888
7.172,7.868
7.176,7.88
7.18,7.892
7.184,7.82
7.188,7.776
7.192,7.788
7.196,7.756
7.2,7.76
7.204,7.768
7.208,7.756
7.212,7.8
7.216,7.74
7.22,7.764
7.224,7.788
7.228,7.788
7.232,7.764
7.236,7.756
7.24,7.788
7.244,7.808
7.248,7.772
7.252,7.708
7.256,7.572
7.26,7.5
7.264,7.648
7.268,7.924
7.272,8.34
7.276,8.944
7.28,9.512
7.284,10.18
7.288,10.8
7.292,10.672
7.296,9.64
7.3,8.728
7.304,8.292
7.308,8.028
7.312,7.84
7.316,7.736
7.32,7.82
7.324,7.928
7.328,7.908
7.332,7.888
7.336,7.896
7.34,7.904
7.344,7.88
7.348,7.86
7.352,7.84
7.356,7.868
7.36,7.88
7.364,7.864
7.368,7.832
7.372,7.876
7.376,7.896
7.38,7.88
7.384,7.852
7.388,7.872
7.392,7.892
7.396,7.9
7.4,7.856
7.404,7.896
7.408,7.912
7.412,7.896
7.416,7.896
7.42,7.896
7.424,7.936
7.428,7.924
7.432,7.92
7.436,7.932
7.44,7.972
7.444,7.976
7.448,7.96
7.452,7.976
7.456,8.008
7.46,8.02
7.464,8.028
7.468,8.016
7.472,8.052
7.476,8.072
7.48,8.064
7.484,8.072
7.488,8.116
7.492,8.16
7.496,8.164
7.5,8.18
7.504,8.24
7.508,8.264
7.512,8.3
7.516,8.304
7.52,8.344
7.524,8.396
7.528,8.424
7.532,8.428
7.536,8.46
7.54,8.504
7.544,8.58
7.548,8.568
7.552,8.592
7.556,8.628
7.56,8.656
7.564,8.668
7.568,8.688
7.572,8.716
7.576,8.732
7.58,8.744
7.584,8.704
7.588,8.688
7.592,8.648
7.596,8.572
7.6,8.456
7.604,8.4
7.608,8.332
7.612,8.276
7.616,8.16
7.62,8.092
7.624,8.056
7.628,7.992
7.632,7.956
7.636,7.912
7.64,7.92
7.644,7.9
7.648,7.884
7.652,7.848
7.656,7.884
7.66,7.864
7.664,7.84
7.668,7.812
7.672,7.832
7.676,7.828
7.68,7.824
7.684,7.796
7.688,7.824
7.692,7.836
7.696,7.848
7.7,7.82
7.704,7.808
7.708,7.832
7.712,7.848
7.716,7.832
7.72,7.852
7.724,7.876
7.728,7.856
7.732,7.844
7.736,7.832
7.74,7.844
7.744,7.828
7.748,7.832
7.752,7.848
7.756,7.832
7.76,7.856
7.764,7.864
7.768,7.82
7.772,7.82
7.776,7.832
7.78,7.848
7.784,7.844
7.788,7.828
7.792,7.848
7.796,7.832
7.8,7.8
7.804,7.828
7.808,7.84
7.812,7.812
7.816,7.772
7.82,7.8
7.824,7.836
7.828,7.812
7.832,7.8
7.836,7.776
7.84,7.8
7.844,7.808
7.848,7.796
7.852,7.776
7.856,7.784
7.86,7.788
7.864,7.764
7.868,7.768
7.872,7.776
7.876,7.792
7.88,7.78
7.884,7.752
7.888,7.748
7.892,7.78
7.896,7.764
7.9,7.736
7.904,7.752
7.908,7.76
7.912,7.748
7.916,7.756
7.92,7.76
7.924,7.776
7.928,7.772
7.932,7.772
7.936,7.764
7.94,7.772
7.944,7.788
7.948,7.744
7.952,7.756
7.956,7.784
7.96,7.756
7.964,7.748
7.968,7.732
7.972,7.764
7.976,7.792
7.98,7.768
7.984,7.756
7.988,7.752
7.992,7.784
7.996,7.768
8,7.804
8.004,7.856
8.008,7.888
8.012,7.924
8.016,7.872
8.02,7.884
8.024,7.952
8.028,8.012
8.032,7.988
8.036,7.936
8.04,7.92
8.044,7.896
8.048,7.888
8.052,7.868
8.056,7.856
8.06,7.86
8.064,7.836
8.068,7.784
8.072,7.768
8.076,7.74
8.08,7.688
8.084,7.668
8.088,7.688
8.092,7.68
8.096,7.688
8.1,7.676
8.104,7.68
8.108,7.692
8.112,7.676
8.116,7.656
8.12,7.648
8.124,7.684
8.128,7.704
8.132,7.672
8.136,7.676
8.14,7.68
8.144,7.668
8.148,7.524
8.152,7.388
8.156,7.488
8.16,7.72
8.164,8.08
8.168,8.596
8.172,9.204
8.176,9.804
8.18,10.5
8.184,10.708
8.188,9.916
8.192,8.92
8.196,8.32
8.2,7.968
8.204,7.792
8.208,7.68
8.212,7.692
8.216,7.78
8.22,7.816
8.224,7.824
8.228,7.816
8.232,7.768
8.236,7.764
8.24,7.792
8.244,7.772
8.248,7.76
8.252,7.764
8.256,7.752
8.26,7.78
8.264,7.788
8.268,7.772
8.272,7.756
8.276,7.792
8.28,7.808
8.284,7.788
8.288,7.796
8.292,7.804
8.296,7.792
8.3,7.796
8.304,7.816
8.308,7.828
8.312,7.804
8.316,7.796
8.32,7.792
8.324,7.856
8.328,7.848
8.332,7.84
8.336,7.832
8.34,7.864
8.344,7.912
8.348,7.904
8.352,7.892
8.356,7.908
8.36,7.932
8.364,7.944
8.368,7.948
8.372,7.976
8.376,8.012
8.38,8.008
8.384,8.016
8.388,8.08
8.392,8.108
8.396,8.124
8.4,8.12
8.404,8.156
8.408,8.236
8.412,8.24
8.416,8.24
8.42,8.276
8.424,8.336
8.428,8.364
8.432,8.372
8.436,8.416
8.44,8.468
8.444,8.472
8.448,8.496
8.452,8.528
8.456,8.564
8.46,8.6
8.464,8.616
8.468,8.62
8.472,8.62
8.476,8.612
8.48,8.56
8.484,8.504
8.488,8.448
8.492,8.408
8.496,8.312
8.5,8.232
8.504,8.148
8.508,8.088
8.512,8.024
8.516,7.94
8.52,7.908
8.524,7.888
8.528,7.86
8.532,7.796
8.536,7.796
8.54,7.776
8.544,7.788
8.548,7.732
8.552,7.724
8.556,7.732
8.56,7.724
8.564,7.732
8.568,7.712
8.572,7.728
8.576,7.72
8.58,7.732
8.584,7.708
8.588,7.736
8.592,7.736
8.596,7.736
8.6,7.708
8.604,7.724
8.608,7.752
8.612,7.736
8.616,7.708
8.62,7.708
8.624,7.744
8.628,7.752
8.632,7.72
8.636,7.724
8.64,7.708
8.644,7.716
8.648,7.744
8.652,7.716
8.656,7.74
8.66,7.736
8.664,7.724
8.668,7.712
8.672,7.732
8.676,7.748
8.68,7.708
8.684,7.7
8.688,7.716
8.692,7.74
8.696,7.716
8.7,7.696
8.704,7.692
8.708,7.716
8.712,7.716
8.716,7.7
8.72,7.684
8.724,7.688
8.728,7.712
8.732,7.668
8.736,7.672
8.74,7.696
8.744,7.708
8.748,7.68
8.752,7.68
8.756,7.676
8.76,7.712
8.764,7.668
8.768,7.656
8.772,7.692
8.776,7.684
8.78,7.664
8.784,7.66
8.788,7.664
8.792,7.68
8.796,7.68
8.8,7.656
8.804,7.672
8.808,7.704
8.812,7.716
8.816,7.74
8.82,7.764
8.824,7.812
8.828,7.796
8.832,7.784
8.836,7.812
8.84,7.892
8.844,7.9
8.848,7.856
8.852,7.872
8.856,7.888
8.86,7.912
8.864,7.864
8.868,7.812
8.872,7.86
8.876,7.84
8.88,7.788
8.884,7.76
8.888,7.74
8.892,7.716
8.896,7.636
8.9,7.584
8.904,7.596
8.908,7.62
8.912,7.632
8.916,7.612
8.92,7.584
8.924,7.588
8.928,7.612
8.932,7.616
8.936,7.604
8.94,7.62
8.944,7.612
8.948,7.604
8.952,7.6
8.956,7.616
8.96,7.624
8.964,7.604
8.968,7.524
8.972,7.396
8.976,7.352
8.98,7.516
8.984,7.796
8.988,8.244
8.992,8.864
8.996,9.428
9,10.108
9.004,10.652
9.008,10.36
9.012,9.352
9.016,8.516
9.02,8.128
9.024,7.856
9.028,7.688
9.032,7.636
9.036,7.728
9.04,7.8
9.044,7.812
9.048,7.764
9.052,7.732
9.056,7.748
9.06,7.756
9.064,7.744
9.068,7.728
9.072,7.732
9.076,7.748
9.08,7.752
9.084,7.724
9.088,7.752
9.092,7.764
9.096,7.76
9.1,7.752
9.104,7.756
9.108,7.8
9.112,7.8
9.116,7.772
9.12,7.82
9.124,7.836
9.128,7.808
9.132,7.792
9.136,7.82
9.14,7.856
9.144,7.852
9.148,7.84
9.152,7.856
9.156,7.86
9.16,7.884
9.164,7.9
9.168,7.896
9.172,7.9
9.176,7.932
9.18,7.952
9.184,7.94
9.188,7.964
9.192,8.02
9.196,8.012
9.2,8.024
9.204,8.064
9.208,8.112
9.212,8.108
9.216,8.112
9.22,8.136
9.224,8.172
9.228,8.236
9.232,8.248
9.236,8.284
9.24,8.32
9.244,8.376
9.248,8.396
9.252,8.444
9.256,8.472
9.26,8.5
9.264,8.536
9.268,8.552
9.272,8.596
9.276,8.652
9.28,8.66
9.284,8.652
9.288,8.688
9.292,8.704
9.296,8.684
9.3,8.64
9.304,8.584
9.308,8.544
9.312,8.46
9.316,8.384
9.32,8.32
9.324,8.248
9.328,8.172
9.332,8.08
9.336,8.02
9.34,7.988
9.344,7.968
9.348,7.916
9.352,7.872
9.356,7.876
9.36,7.884
9.364,7.864
9.368,7.848
9.372,7.832
9.376,7.844
9.38,7.856
9.384,7.824
9.388,7.828
9.392,7.844
9.396,7.856
9.4,7.816
9.404,7.856
9.408,7.86
9.412,7.856
9.416,7.84
9.42,7.84
9.424,7.876
9.428,7.856
9.432,7.84
9.436,7.828
9.44,7.864
9.444,7.876
9.448,7.876
9.452,7.86
9.456,7.88
9.46,7.876
9.464,7.872
9.468,7.864
9.472,7.868
9.476,7.888
9.48,7.876
9.484,7.856
9.488,7.868
9.492,7.9
9.496,7.852
9.5,7.84
9.504,7.848
9.508,7.88
9.512,7.872
9.516,7.812
9.52,7.844
9.524,7.852
9.528,7.86
9.532,7.84
9.536,7.836
9.54,7.832
9.544,7.84
9.548,7.82
9.552,7.848
9.556,7.832
9.56,7.828
9.564,7.828
9.568,7.816
9.572,7.836
9.576,7.864
9.58,7.836
9.584,7.816
9.588,7.836
9.592,7.844
9.596,7.82
9.6,7.828
9.604,7.82
9.608,7.852
9.612,7.836
9.616,7.812
9.62,7.84
9.624,7.868
9.628,7.864
9.632,7.828
9.636,7.828
9.64,7.86
9.644,7.868
9.648,7.848
9.652,7.852
9.656,7.916
9.66,7.972
9.664,7.988
9.668,7.98
9.672,8.008
9.676,8.024
9.68,8.028
9.684,8.052
9.688,8.064
9.692,8.08
9.696,8.056
9.7,8.02
9.704,8.028
9.708,8.016
9.712,7.992
9.716,7.976
9.72,7.96
9.724,7.972
9.728,7.952
9.732,7.904
9.736,7.86
9.74,7.82
9.744,7.816
9.748,7.788
9.752,7.796
9.756,7.8
9.76,7.8
9.764,7.78
9.768,7.792
9.772,7.816
9.776,7.824
9.78,7.816
9.784,7.816
9.788,7.832
9.792,7.848
9.796,7.816
9.8,7.796
9.804,7.824
9.808,7.796
9.812,7.652
9.816,7.52
9.82,7.608
9.824,7.952
9.828,8.308
9.832,8.856
9.836,9.448
9.84,10.112
9.844,10.792
9.848,10.824
9.852,9.932
9.856,9
9.86,8.492
9.864,8.148
9.868,7.944
9.872,7.864
9.876,7.916
9.88,7.996
9.884,7.984
9.888,8
9.892,7.996
9.896,7.968
9.9,7.96
9.904,7.96
9.908,7.964
9.912,7.956
9.916,7.952
9.92,7.952
9.924,7.96
9.928,7.972
9.932,7.952
9.936,7.944
9.94,7.968
9.944,7.996
9.948,7.968
9.952,7.96
9.956,8.004
9.96,8.032
9.964,8.028
9.968,8.016
9.972,8.008
9.976,8.032
9.98,8.004
9.984,8.028
9.988,8.04
9.992,8.052
9.996,8.056
10,8.036
10.004,8.06
10.008,8.092
10.012,8.112
10.016,8.104
10.02,8.132
10.024,8.148
10.028,8.144
10.032,8.184
10.036,8.184
10.04,8.204
10.044,8.248
10.048,8.272
10.052,8.296
10.056,8.332
10.06,8.372
10.064,8.372
10.068,8.396
10.072,8.444
10.076,8.508
10.08,8.492
10.084,8.536
10.088,8.58
10.092,8.64
10.096,8.656
10.1,8.664
10.104,8.7
10.108,8.748
10.112,8.796
10.116,8.8
10.12,8.8
10.124,8.84
10.128,8.876
10.132,8.884
10.136,8.864
10.14,8.844
10.144,8.816
10.148,8.74
10.152,8.684
10.156,8.628
10.16,8.552
10.164,8.444
10.168,8.364
10.172,8.308
10.176,8.28
10.18,8.196
10.184,8.136
10.188,8.128
10.192,8.104
10.196,8.06
10.2,8.016
10.204,8.032
10.208,8.048
10.212,8.028
10.216,7.996
10.22,8.012
10.224,8.036
10.228,8.012
10.232,8
10.236,7.988
10.24,7.988
10.244,8.024
10.248,8.004
10.252,7.976
10.256,8.004
10.26,8.008
10.264,8.008
10.268,8
10.272,8.032
10.276,8.016
10.28,8.004
10.284,8.004
10.288,8.016
10.292,8.028
10.296,7.992
10.3,7.984
10.304,7.988
10.308,8.02
10.312,8.012
10.316,7.98
10.32,7.992
10.324,8.012
10.328,7.984
10.332,7.992
10.336,7.988
10.34,7.972
10.344,7.984
10.348,7.956
10.352,7.948
10.356,7.968
10.36,7.968
10.364,7.972
10.368,7.932
10.372,7.968
10.376,7.968
10.38,7.952
10.384,7.936
10.388,7.924
10.392,7.96
10.396,7.96
10.4,7.948
10.404,7.96
10.408,7.972
10.412,7.94
10.416,7.92
10.42,7.94
10.424,7.948
10.428,7.948
10.432,7.912
10.436,7.928
10.44,7.924
10.444,7.936
10.448,7.924
10.452,7.892
10.456,7.932
10.46,7.948
10.464,7.936
10.468,7.908
10.472,7.904
10.476,7.924
10.48,7.928
10.484,7.904
10.488,7.912
10.492,7.932
10.496,7.892
10.5,7.872
10.504,7.904
10.508,7.908
10.512,7.9
10.516,7.864
10.52,7.896
10.524,7.92
10.528,7.912
10.532,7.892
10.536,7.908
10.54,7.912
10.544,7.928
10.548,7.896
10.552,7.892
10.556,7.912
10.56,7.904
10.564,7.952
10.568,8
10.572,8.024
10.576,8.064
10.58,8.06
10.584,8.012
10.588,8.06
10.592,8.136
10.596,8.16
10.6,8.076
10.604,8.064
10.608,8.084
10.612,8.06
10.616,8.028
10.62,7.98
10.624,7.98
10.628,7.996
10.632,7.924
10.636,7.924
10.64,7.92
10.644,7.892
10.648,7.808
10.652,7.844
10.656,7.872
10.66,7.868
10.664,7.84
10.668,7.82
10.672,7.816
10.676,7.852
10.68,7.86
10.684,7.808
10.688,7.836
10.692,7.848
10.696,7.868
10.7,7.852
10.704,7.84
10.708,7.876
10.712,7.784
10.716,7.688
10.72,7.564
10.724,7.64
10.728,7.924
10.732,8.268
10.736,8.796
10.74,9.412
10.744,10.02
10.748,10.716
10.752,10.832
10.756,10.024
10.76,9.064
10.764,8.504
10.768,8.164
10.772,7.96
10.776,7.86
10.78,7.872
10.784,7.964
10.788,7.992
10.792,7.992
10.796,7.972
10.8,7.932
10.804,7.956
10.808,7.968
10.812,7.916
10.816,7.888
10.82,7.912
10.824,7.952
10.828,7.932
10.832,7.94
10.836,7.944
10.84,7.944
10.844,7.968
10.848,7.928
10.852,7.932
10.856,7.94
10.86,7.98
10.864,7.968
10.868,7.96
10.872,7.988
10.876,7.996
10.88,7.988
10.884,7.96
10.888,7.972
10.892,8
10.896,8.044
10.9,8.016
10.904,8.032
10.908,8.048
10.912,8.064
10.916,8.044
10.92,8.072
10.924,8.108
10.928,8.12
10.932,8.116
10.936,8.144
10.94,8.18
10.944,8.18
10.948,8.196
10.952,8.204
10.956,8.252
10.96,8.284
10.964,8.292
10.968,8.3
10.972,8.364
10.976,8.404
10.98,8.428
10.984,8.424
10.988,8.472
10.992,8.52
10.996,8.548
11,8.572
11.004,8.608
11.008,8.656
11.012,8.68
11.016,8.68
11.02,8.7
11.024,8.76
11.028,8.752
11.032,8.756
11.036,8.796
11.04,8.812
11.044,8.8
11.048,8.756
11.052,8.684
11.056,8.628
11.06,8.56
11.064,8.472
11.068,8.412
11.072,8.332
11.076,8.268
11.08,8.216
11.084,8.148
11.088,8.096
11.092,8.04
11.096,8.008
11.1,7.98
11.104,7.964
11.108,7.992
11.112,7.948
11.116,7.928
11.12,7.904
11.124,7.908
11.128,7.928
11.132,7.92
11.136,7.908
11.14,7.92
11.144,7.924
11.148,7.924
11.152,7.904
11.156,7.916
11.16,7.928
11.164,7.936
11.168,7.888
11.172,7.932
11.176,7.924
11.18,7.932
11.184,7.9
11.188,7.912
11.192,7.956
11.196,7.948
11.2,7.916
11.204,7.912
11.208,7.944
11.212,7.956
11.216,7.928
11.22,7.928
11.224,7.924
11.228,7.912
11.232,7.9
11.236,7.908
11.24,7.944
11.244,7.916
11.248,7.892
11.252,7.884
11.256,7.924
11.26,7.916
11.264,7.888
11.268,7.888
11.272,7.896
11.276,7.932
11.28,7.888
11.284,7.88
11.288,7.896
11.292,7.896
11.296,7.852
11.3,7.856
11.304,7.868
11.308,7.88
11.312,7.868
11.316,7.82
11.32,7.836
11.324,7.856
11.328,7.856
11.332,7.84
11.336,7.816
11.34,7.852
11.344,7.868
11.348,7.848
11.352,7.808
11.356,7.832
11.36,7.832
11.364,7.848
11.368,7.844
11.372,7.836
11.376,7.856
11.38,7.832
11.384,7.8
11.388,7.836
11.392,7.844
11.396,7.804
11.4,7.82
11.404,7.78
11.408,7.828
11.412,7.816
11.416,7.776
11.42,7.82
11.424,7.824
11.428,7.828
11.432,7.812
11.436,7.812
11.44,7.808
11.444,7.824
11.448,7.808
11.452,7.808
11.456,7.816
11.46,7.824
11.464,7.804
11.468,7.808
11.472,7.816
11.476,7.844
11.48,7.816
11.484,7.796
11.488,7.78
11.492,7.828
11.496,7.816
11.5,7.792
11.504,7.796
11.508,7.788
11.512,7.812
11.516,7.776
11.52,7.784
11.524,7.804
11.528,7.812
11.532,7.796
11.536,7.792
11.54,7.836
11.544,7.86
11.548,7.884
11.552,7.88
11.556,7.932
11.56,7.952
11.564,7.908
11.568,7.94
11.572,7.984
11.576,8.048
11.58,8.004
11.584,7.956
11.588,7.94
11.592,7.928
11.596,7.912
11.6,7.888
11.604,7.88
11.608,7.896
11.612,7.844
11.616,7.816
11.62,7.784
11.624,7.804
11.628,7.724
11.632,7.708
11.636,7.696
11.64,7.708
11.644,7.732
11.648,7.716
11.652,7.704
11.656,7.712
11.66,7.704
11.664,7.7
11.668,7.708
11.672,7.708
11.676,7.72
11.68,7.744
11.684,7.704
11.688,7.752
11.692,7.728
11.696,7.62
11.7,7.44
11.704,7.44
11.708,7.7
11.712,8.02
11.716,8.44
11.72,9.04
11.724,9.644
11.728,10.388
11.732,10.804
11.736,10.276
11.74,9.236
11.744,8.548
11.748,8.172
11.752,7.904
11.756,7.768
11.76,7.764
11.764,7.844
11.768,7.844
11.772,7.836
11.776,7.876
11.78,7.836
11.784,7.792
11.788,7.78
11.792,7.78
11.796,7.796
11.8,7.772
11.804,7.776
11.808,7.772
11.812,7.816
11.816,7.78
11.82,7.8
11.824,7.844
11.828,7.836
11.832,7.8
11.836,7.82
11.84,7.828
11.844,7.84
11.848,7.816
11.852,7.816
11.856,7.84
11.86,7.864
11.864,7.868
11.868,7.856
11.872,7.856
11.876,7.896
11.88,7.884
11.884,7.896
11.888,7.9
11.892,7.9
11.896,7.912
11.9,7.924
11.904,7.928
11.908,7.956
11.912,7.956
11.916,7.952
11.92,7.972
11.924,8.02
11.928,8.04
11.932,8.024
11.936,8.068
11.94,8.112
11.944,8.124
11.948,8.164
11.952,8.172
11.956,8.188
11.96,8.22
11.964,8.252
11.968,8.264
11.972,8.336
11.976,8.34
11.98,8.392
11.984,8.396
11.988,8.452
11.992,8.488
11.996,8.512
12,8.508
12.004,8.568
12.008,8.6
12.012,8.62
12.016,8.624
12.02,8.64
12.024,8.656
12.028,8.632
12.032,8.58
12.036,8.516
12.04,8.48
12.044,8.376
12.048,8.296
12.052,8.208
12.056,8.156
12.06,8.096
12.064,8.008
12.068,7.952
12.072,7.9
12.076,7.896
12.08,7.848
12.084,7.812
12.088,7.788
12.092,7.788
12.096,7.748
12.1,7.74
12.104,7.748
12.108,7.736
12.112,7.736
12.116,7.732
12.12,7.72
12.124,7.752
12.128,7.732
12.132,7.732
12.136,7.72
12.14,7.724
12.144,7.76
12.148,7.748
12.152,7.704
12.156,7.736
12.16,7.76
12.164,7.752
12.168,7.736
12.172,7.752
12.176,7.78
12.18,7.736
12.184,7.736
12.188,7.756
12.192,7.756
12.196,7.752
12.2,7.704
12.204,7.712
12.208,7.752
12.212,7.768
12.216,7.728
12.22,7.72
12.224,7.736
12.228,7.74
12.232,7.74
12.236,7.696
12.24,7.724
12.244,7.728
12.248,7.768
12.252,7.708
12.256,7.692
12.26,7.708
12.264,7.692
12.268,7.66
12.272,7.688
12.276,7.708
12.28,7.68
12.284,7.688
12.288,7.696
12.292,7.692
12.296,7.692
12.3,7.644
12.304,7.652
12.308,7.648
12.312,7.672
12.316,7.62
12.32,7.652
12.324,7.636
12.328,7.66
12.332,7.672
12.336,7.66
12.34,7.652
12.344,7.656
12.348,7.652
12.352,7.616
12.356,7.652
12.36,7.66
12.364,7.648
12.368,7.628
12.372,7.648
12.376,7.656
12.38,7.664
12.384,7.64
12.388,7.656
12.392,7.656
12.396,7.672
12.4,7.656
12.404,7.664
12.408,7.668
12.412,7.644
12.416,7.624
12.42,7.632
12.424,7.648
12.428,7.632
12.432,7.624
12.436,7.628
12.44,7.648
12.444,7.68
12.448,7.636
12.452,7.628
12.456,7.644
12.46,7.648
12.464,7.66
12.468,7.628
12.472,7.656
12.476,7.636
12.48,7.636
12.484,7.612
12.488,7.624
12.492,7.664
12.496,7.652
12.5,7.624
12.504,7.616
12.508,7.656
12.512,7.684
12.516,7.652
12.52,7.656
12.524,7.712
12.528,7.736
12.532,7.76
12.536,7.744
12.54,7.768
12.544,7.784
12.548,7.808
12.552,7.784
12.556,7.832
12.56,7.824
12.564,7.776
12.568,7.756
12.572,7.756
12.576,7.732
12.58,7.756
12.584,7.728
12.588,7.712
12.592,7.692
12.596,7.688
12.6,7.632
12.604,7.568
12.608,7.576
12.612,7.56
12.616,7.556
12.62,7.536
12.624,7.556
12.628,7.576
12.632,7.544
12.636,7.548
12.64,7.56
12.644,7.58
12.648,7.568
12.652,7.54
12.656,7.548
12.66,7.58
12.664,7.584
12.668,7.556
12.672,7.544
12.676,7.472
12.68,7.328
12.684,7.288
12.688,7.508
12.692,7.82
12.696,8.28
12.7,8.872
12.704,9.476
12.708,10.216
12.712,10.676
12.716,10.176
12.72,9.104
12.724,8.408
12.728,8.052
12.732,7.768
12.736,7.6
12.74,7.576
12.744,7.668
12.748,7.724
12.752,7.728
12.756,7.708
12.76,7.68
12.764,7.656
12.768,7.648
12.772,7.644
12.776,7.676
12.78,7.664
12.784,7.632
12.788,7.644
12.792,7.68
12.796,7.688
12.8,7.644
12.804,7.644
12.808,7.676
12.812,7.676
12.816,7.688
12.82,7.668
12.824,7.688
12.828,7.7
12.832,7.696
12.836,7.7
12.84,7.72
12.844,7.704
12.848,7.732
12.852,7.74
12.856,7.74
12.86,7.776
12.864,7.764
12.868,7.732
12.872,7.748
12.876,7.8
12.88,7.796
12.884,7.792
12.888,7.792
12.892,7.864
12.896,7.872
12.9,7.864
12.904,7.896
12.908,7.908
12.912,7.932
12.916,7.912
12.92,7.96
12.924,8.02
12.928,8.04
12.932,8.044
12.936,8.068
12.94,8.112
12.944,8.168
12.948,8.192
12.952,8.196
12.956,8.236
12.96,8.272
12.964,8.336
12.968,8.328
12.972,8.348
12.976,8.416
12.98,8.42
12.984,8.448
12.988,8.448
12.992,8.504
12.996,8.52
13,8.5
13.004,8.512
13.008,8.508
13.012,8.46
13.016,8.408
13.02,8.332
13.024,8.28
13.028,8.2
13.032,8.12
13.036,8.02
13.04,7.968
13.044,7.904
13.048,7.832
13.052,7.76
13.056,7.736
13.06,7.72
13.064,7.668
13.068,7.656
13.072,7.66
13.076,7.684
13.08,7.648
13.084,7.616
13.088,7.596
13.092,7.632
13.096,7.62
13.1,7.596
13.104,7.604
13.108,7.62
13.112,7.616
13.116,7.612
13.12,7.616
13.124,7.62
13.128,7.64
13.132,7.62
13.136,7.616
13.14,7.636
13.144,7.644
13.148,7.616
13.152,7.604
13.156,7.632
13.16,7.64
13.164,7.624
13.168,7.624
13.172,7.6
13.176,7.62
13.18,7.64
13.184,7.608
13.188,7.608
13.192,7.608
13.196,7.616
13.2,7.616
13.204,7.672
13.208,7.62
13.212,7.62
13.216,7.568
13.22,7.58
13.224,7.604
13.228,7.588
13.232,7.584
13.236,7.556
13.24,7.56
13.244,7.592
13.248,7.588
13.252,7.556
13.256,7.552
13.26,7.552
13.264,7.568
13.268,7.536
13.272,7.532
13.276,7.56
13.28,7.552
13.284,7.532
13.288,7.54
13.292,7.552
13.296,7.528
13.3,7.532
13.304,7.516
13.308,7.532
13.312,7.532
13.316,7.508
13.32,7.492
13.324,7.532
13.328,7.528
13.332,7.516
13.336,7.524
13.34,7.508
13.344,7.528
13.348,7.496
13.352,7.496
13.356,7.516
13.36,7.524
13.364,7.508
13.368,7.488
13.372,7.504
13.376,7.524
13.38,7.524
13.384,7.472
13.388,7.488
13.392,7.528
13.396,7.532
13.4,7.508
13.404,7.504
13.408,7.488
13.412,7.508
13.416,7.492
13.42,7.504
13.424,7.496
13.428,7.52
13.432,7.492
13.436,7.512
13.44,7.504
13.444,7.528
13.448,7.508
13.452,7.496
13.456,7.536
13.46,7.568
13.464,7.544
13.468,7.556
13.472,7.588
13.476,7.62
13.48,7.644
13.484,7.632
13.488,7.656
13.492,7.68
13.496,7.676
13.5,7.668
13.504,7.696
13.508,7.68
13.512,7.668
13.516,7.636
13.52,7.604
13.524,7.628
13.528,7.62
13.532,7.604
13.536,7.548
13.54,7.536
13.544,7.544
13.548,7.468
13.552,7.408
13.556,7.432
13.56,7.444
13.564,7.432
13.568,7.436
13.572,7.432
13.576,7.428
13.58,7.42
13.584,7.42
13.588,7.408
13.592,7.436
13.596,7.436
13.6,7.404
13.604,7.416
13.608,7.46
13.612,7.444
13.616,7.432
13.62,7.364
13.624,7.232
13.628,7.144
13.632,7.276
13.636,7.556
13.64,7.944
13.644,8.5
13.648,9.088
13.652,9.752
13.656,10.424
13.66,10.448
13.664,9.492
13.668,8.528
13.672,8.068
13.676,7.756
13.68,7.58
13.684,7.432
13.688,7.516
13.692,7.604
13.696,7.624
13.7,7.572
13.704,7.556
13.708,7.56
13.712,7.54
13.716,7.532
13.72,7.528
13.724,7.536
13.728,7.528
13.732,7.532
13.736,7.512
13.74,7.548
13.744,7.568
13.748,7.54
13.752,7.532
13.756,7.552
13.76,7.556
13.764,7.576
13.768,7.548
13.772,7.568
13.776,7.58
13.78,7.596
13.784,7.584
13.788,7.608
13.792,7.608
13.796,7.62
13.8,7.6
13.804,7.608
13.808,7.644
13.812,7.656
13.816,7.636
13.82,7.636
13.824,7.688
13.828,7.684
13.832,7.696
13.836,7.684
13.84,7.712
13.844,7.728
13.848,7.78
13.852,7.772
13.856,7.792
13.86,7.84
13.864,7.852
13.868,7.856
13.872,7.892
13.876,7.936
13.88,7.964
13.884,7.964
13.888,8.012
13.892,8.08
13.896,8.108
13.9,8.128
13.904,8.148
13.908,8.188
13.912,8.232
13.916,8.256
13.92,8.26
13.924,8.308
13.928,8.328
13.932,8.364
13.936,8.384
13.94,8.416
13.944,8.44
13.948,8.44
13.952,8.396
13.956,8.388
13.96,8.36
13.964,8.264
13.968,8.16
13.972,8.124
13.976,8.04
13.98,7.972
13.984,7.884
13.988,7.8
13.992,7.78
13.996,7.704
14,7.64
14.004,7.616
14.008,7.572
14.012,7.576
14.016,7.54
14.02,7.536
14.024,7.552
14.028,7.528
14.032,7.516
14.036,7.484
14.04,7.492
14.044,7.508
14.048,7.524
14.052,7.468
14.056,7.496
14.06,7.496
14.064,7.516
14.068,7.5
14.072,7.504
14.076,7.512
14.08,7.52
14.084,7.496
14.088,7.516
14.092,7.512
14.096,7.516
14.1,7.5
14.104,7.516
14.108,7.552
14.112,7.556
14.116,7.504
14.12,7.504
14.124,7.516
14.128,7.528
14.132,7.5
14.136,7.52
14.14,7.512
14.144,7.532
14.148,7.532
14.152,7.504
14.156,7.52
14.16,7.524
14.164,7.5
14.168,7.496
14.172,7.496
14.176,7.492
14.18,7.488
14.184,7.472
14.188,7.452
14.192,7.484
14.196,7.508
14.2,7.456
14.204,7.472
14.208,7.488
14.212,7.48
14.216,7.456
14.22,7.464
14.224,7.444
14.228,7.452
14.232,7.444
14.236,7.424
14.24,7.444
14.244,7.46
14.248,7.46
14.252,7.432
14.256,7.44
14.26,7.464
14.264,7.444
14.268,7.428
14.272,7.416
14.276,7.42
14.28,7.464
14.284,7.432
14.288,7.424
14.292,7.436
14.296,7.42
14.3,7.42
14.304,7.428
14.308,7.432
14.312,7.432
14.316,7.408
14.32,7.408
14.324,7.448
14.328,7.444
14.332,7.432
14.336,7.4
14.34,7.424
14.344,7.42
14.348,7.444
14.352,7.424
14.356,7.432
14.36,7.436
14.364,7.436
14.368,7.448
14.372,7.428
14.376,7.416
14.38,7.444
14.384,7.388
14.388,7.412
14.392,7.444
14.396,7.424
14.4,7.408
14.404,7.416
14.408,7.436
14.412,7.444
14.416,7.408
14.42,7.416
14.424,7.448
14.428,7.46
14.432,7.456
14.436,7.48
14.44,7.496
14.444,7.548
14.448,7.56
14.452,7.544
14.456,7.616
14.46,7.624
14.464,7.616
14.468,7.592
14.472,7.592
14.476,7.604
14.48,7.584
14.484,7.548
14.488,7.536
14.492,7.544
14.496,7.568
14.5,7.516
14.504,7.484
14.508,7.452
14.512,7.448
14.516,7.408
14.52,7.368
14.524,7.36
14.528,7.376
14.532,7.348
14.536,7.356
14.54,7.36
14.544,7.384
14.548,7.36
14.552,7.344
14.556,7.352
14.56,7.364
14.564,7.36
14.568,7.356
14.572,7.368
14.576,7.38
14.58,7.372
14.584,7.364
14.588,7.288
14.592,7.156
14.596,7.072
14.6,7.232
14.604,7.564
14.608,7.972
14.612,8.552
14.616,9.124
14.62,9.844
14.624,10.456
14.628,10.232
14.632,9.208
14.636,8.364
14.64,7.932
14.644,7.676
14.648,7.516
14.652,7.42
14.656,7.508
14.66,7.572
14.664,7.556
14.668,7.512
14.672,7.524
14.676,7.504
14.68,7.488
14.684,7.468
14.688,7.48
14.692,7.492
14.696,7.464
14.7,7.436
14.704,7.464
14.708,7.512
14.712,7.512
14.716,7.492
14.72,7.484
14.724,7.496
14.728,7.524
14.732,7.5
14.736,7.504
14.74,7.52
14.744,7.532
14.748,7.536
14.752,7.536
14.756,7.56
14.76,7.592
14.764,7.588
14.768,7.572
14.772,7.58
14.776,7.632
14.78,7.64
14.784,7.604
14.788,7.632
14.792,7.66
14.796,7.684
14.8,7.672
14.804,7.696
14.808,7.72
14.812,7.744
14.816,7.728
14.82,7.768
14.824,7.82
14.828,7.828
14.832,7.82
14.836,7.84
14.84,7.884
14.844,7.928
14.848,7.932
14.852,7.964
14.856,8.008
14.86,8.068
14.864,8.108
14.868,8.124
14.872,8.14
14.876,8.184
14.88,8.224
14.884,8.212
14.888,8.256
14.892,8.312
14.896,8.328
14.9,8.364
14.904,8.392
14.908,8.432
14.912,8.444
14.916,8.416
14.92,8.384
14.924,8.36
14.928,8.332
14.932,8.256
14.936,8.164
14.94,8.12
14.944,8.036
14.948,7.956
14.952,7.884
14.956,7.812
14.96,7.772
14.964,7.704
14.968,7.644
14.972,7.64
14.976,7.624
14.98,7.568
14.984,7.544
14.988,7.532
14.992,7.532
14.996,7.544
15,7.492
15.004,7.504
15.008,7.5
15.012,7.516
15.016,7.5
15.02,7.496
15.024,7.484
15.028,7.48
15.032,7.5
15.036,7.492
15.04,7.504
15.044,7.5
15.048,7.504
15.052,7.476
15.056,7.504
15.06,7.516
15.064,7.512
15.068,7.5
15.072,7.496
15.076,7.496
15.08,7.512
15.084,7.48
15.088,7.492
15.092,7.504
15.096,7.484
15.1,7.492
15.104,7.484
15.108,7.5
15.112,7.488
15.116,7.46
15.12,7.436
15.124,7.504
15.128,7.512
15.132,7.48
15.136,7.476
15.14,7.484
15.144,7.48
15.148,7.484
15.152,7.464
15.156,7.456
15.16,7.496
15.164,7.456
15.168,7.444
15.172,7.46
15.176,7.468
15.18,7.472
15.184,7.432
15.188,7.448
15.192,7.472
15.196,7.472
15.2,7.44
15.204,7.444
15.208,7.472
15.212,7.48
15.216,7.44
15.22,7.444
15.224,7.444
15.228,7.452
15.232,7.452
15.236,7.424
15.24,7.444
15.244,7.468
15.248,7.444
15.252,7.44
15.256,7.452
15.26,7.46
15.264,7.444
15.268,7.432
15.272,7.444
15.276,7.448
15.28,7.46
15.284,7.432
15.288,7.428
15.292,7.436
15.296,7.472
15.3,7.432
15.304,7.44
15.308,7.444
15.312,7.452
15.316,7.412
15.32,7.432
15.324,7.46
15.328,7.436
15.332,7.44
15.336,7.408
15.34,7.44
15.344,7.468
15.348,7.432
15.352,7.412
15.356,7.444
15.36,7.472
15.364,7.48
15.368,7.46
15.372,7.468
15.376,7.508
15.38,7.536
15.384,7.528
15.388,7.552
15.392,7.576
15.396,7.588
15.4,7.616
15.404,7.612
15.408,7.624
15.412,7.636
15.416,7.616
15.42,7.596
15.424,7.612
15.428,7.592
15.432,7.56
15.436,7.548
15.44,7.552
15.444,7.536
15.448,7.508
15.452,7.492
15.456,7.428
15.46,7.384
15.464,7.392
15.468,7.376
15.472,7.392
15.476,7.4
15.48,7.392
15.484,7.368
15.488,7.376
15.492,7.388
15.496,7.384
15.5,7.356
15.504,7.376
15.508,7.376
15.512,7.4
15.516,7.396
15.52,7.376
15.524,7.384
15.528,7.368
15.532,7.252
15.536,7.1
15.54,7.168
15.544,7.408
15.548,7.756
15.552,8.268
15.556,8.892
15.56,9.468
15.564,10.204
15.568,10.492
15.572,9.748
15.576,8.74
15.58,8.108
15.584,7.744
15.588,7.54
15.592,7.392
15.596,7.452
15.6,7.508
15.604,7.536
15.608,7.508
15.612,7.52
15.616,7.544
15.62,7.54
15.624,7.52
15.628,7.528
15.632,7.532
15.636,7.488
15.64,7.528
15.644,7.592
15.648,7.552
15.652,7.484
15.656,7.548
15.66,7.616
15.664,7.56
15.668,7.488
15.672,7.4
15.676,7.42
15.68,7.428
15.684,7.464
15.688,7.592
15.692,7.708
15.696,7.736
15.7,7.632
15.704,7.54
15.708,7.624
15.712,7.692
15.716,7.672
15.72,7.66
15.724,7.716
15.728,7.744
15.732,7.708
15.736,7.7
15.74,7.772
15.744,7.832
15.748,7.828
15.752,7.788
15.756,7.78
15.76,7.864
15.764,7.904
15.768,7.82
15.772,7.824
15.776,7.816
15.78,7.856
15.784,7.904
15.788,7.952
15.792,8.092
15.796,8.144
15.8,8.092
15.804,8.22
15.808,8.248
15.812,8.232
15.816,8.204
15.82,8.26
15.824,8.4
15.828,8.428
15.832,8.388
15.836,8.388
15.84,8.38
15.844,8.456
15.848,8.396
15.852,8.384
15.856,8.396
15.86,8.432
15.864,8.468
15.868,8.452
15.872,8.372
15.876,8.32
15.88,8.192
15.884,8.08
15.888,7.972
15.892,7.904
15.896,7.928
15.9,7.86
15.904,7.784
15.908,7.788
15.912,7.876
15.916,7.772
15.92,7.624
15.924,7.588
15.928,7.624
15.932,7.616
15.936,7.56
15.94,7.56
15.944,7.58
15.948,7.576
15.952,7.552
15.956,7.568
15.96,7.568
15.964,7.612
15.968,7.692
15.972,7.592
15.976,7.508
15.98,7.444
15.984,7.476
15.988,7.504
15.992,7.576
15.996,7.636
16,7.636
16.004,7.66
16.008,7.652
16.012,7.68
16.016,7.66
16.02,7.628
16.024,7.564
16.028,7.584
16.032,7.624
16.036,7.644
16.04,7.632
16.044,7.608
16.048,7.816
16.052,7.808
16.056,7.644
16.06,7.5
16.064,7.432
16.068,7.456
16.072,7.552
16.076,7.612
16.08,7.632
16.084,7.484
16.088,7.48
16.092,7.56
16.096,7.652
16.1,7.632
16.104,7.564
16.108,7.72
16.112,7.812
16.116,7.68
16.12,7.5
16.124,7.476
16.128,7.484
16.132,7.516
16.136,7.532
16.14,7.524
16.144,7.576
16.148,7.556
16.152,7.524
16.156,7.576
16.16,7.784
16.164,7.724
16.168,7.444
16.172,7.48
16.176,7.568
16.18,7.528
16.184,7.44
16.188,7.344
16.192,7.408
16.196,7.468
16.2,7.396
16.204,7.424
16.208,7.448
16.212,7.432
16.216,7.436
16.22,7.548
16.224,7.612
16.228,7.676
16.232,7.476
16.236,7.372
16.24,7.396
16.244,7.508
16.248,7.468
16.252,7.372
16.256,7.36
16.26,7.52
16.264,7.676
16.268,7.524
16.272,7.412
16.276,7.396
16.28,7.416
16.284,7.368
16.288,7.388
16.292,7.396
16.296,7.364
16.3,7.404
16.304,7.428
16.308,7.452
16.312,7.532
16.316,7.468
16.32,7.496
16.324,7.584
16.328,7.512
16.332,7.464
16.336,7.528
16.34,7.564
16.344,7.576
16.348,7.588
16.352,7.568
16.356,7.604
16.36,7.644
16.364,7.56
16.368,7.468
16.372,7.496
16.376,7.544
16.38,7.54
16.384,7.456
16.388,7.432
16.392,7.436
16.396,7.404
16.4,7.328
16.404,7.32
16.408,7.34
16.412,7.324
16.416,7.32
16.42,7.368
16.424,7.38
16.428,7.456
16.432,7.384
16.436,7.272
16.44,7.284
16.444,7.328
16.448,7.32
16.452,7.312
16.456,7.38
16.46,7.356
16.464,7.392
16.468,7.332
16.472,7.16
16.476,7.016
16.48,7.124
16.484,7.396
16.488,7.772
16.492,8.372
16.496,8.908
16.5,9.532
16.504,10.312
16.508,10.476
16.512,9.584
16.516,8.508
16.52,7.952
16.524,7.708
16.528,7.552
16.532,7.448
16.536,7.42
16.54,7.512
16.544,7.504
16.548,7.456
16.552,7.376
16.556,7.408
16.56,7.444
16.564,7.424
16.568,7.412
16.572,7.424
16.576,7.464
16.58,7.436
16.584,7.372
16.588,7.412
16.592,7.416
16.596,7.524
16.6,7.468
16.604,7.368
16.608,7.352
16.612,7.412
16.616,7.436
16.62,7.436
16.624,7.48
16.628,7.528
16.632,7.5
16.636,7.532
16.64,7.532
16.644,7.468
16.648,7.516
16.652,7.568
16.656,7.6
16.66,7.52
16.664,7.532
16.668,7.564
16.672,7.604
16.676,7.664
16.68,7.644
16.684,7.656
16.688,7.668
16.692,7.64
16.696,7.656
16.7,7.736
16.704,7.744
16.708,7.732
16.712,7.732
16.716,7.776
16.72,7.796
16.724,7.86
16.728,7.92
16.732,7.908
16.736,7.924
16.74,8.012
16.744,8.092
16.748,8.068
16.752,8.084
16.756,8.152
16.76,8.256
16.764,8.192
16.768,8.14
16.772,8.264
16.776,8.308
16.78,8.292
16.784,8.312
16.788,8.376
16.792,8.412
16.796,8.308
16.8,8.296
16.804,8.268
16.808,8.3
16.812,8.292
16.816,8.12
16.82,7.98
16.824,7.984
16.828,8
16.832,7.916
16.836,7.752
16.84,7.696
16.844,7.672
16.848,7.564
16.852,7.528
16.856,7.512
16.86,7.536
16.864,7.512
16.868,7.46
16.872,7.448
16.876,7.444
16.88,7.472
16.884,7.428
16.888,7.428
16.892,7.408
16.896,7.456
16.9,7.424
16.904,7.444
16.908,7.46
16.912,7.472
16.916,7.484
16.92,7.42
16.924,7.432
16.928,7.484
16.932,7.456
16.936,7.444
16.94,7.408
16.944,7.444
16.948,7.44
16.952,7.436
16.956,7.492
16.96,7.524
16.964,7.46
16.968,7.424
16.972,7.456
16.976,7.508
16.98,7.588
16.984,7.472
16.988,7.396
16.992,7.44
16.996,7.48
17,7.468
17.004,7.44
17.008,7.428
17.012,7.464
17.016,7.432
17.02,7.456
17.024,7.46
17.028,7.472
17.032,7.424
17.036,7.436
17.04,7.472
17.044,7.468
17.048,7.464
17.052,7.392
17.056,7.4
17.06,7.496
17.064,7.472
17.068,7.416
17.072,7.428
17.076,7.452
17.08,7.496
17.084,7.396
17.088,7.44
17.092,7.436
17.096,7.404
17.1,7.34
17.104,7.364
17.108,7.404
17.112,7.372
17.116,7.364
17.12,7.352
17.124,7.412
17.128,7.416
17.132,7.416
17.136,7.376
17.14,7.404
17.144,7.404
17.148,7.42
17.152,7.4
17.156,7.4
17.16,7.388
17.164,7.396
17.168,7.38
17.172,7.376
17.176,7.376
17.18,7.444
17.184,7.392
17.188,7.36
17.192,7.352
17.196,7.492
17.2,7.444
17.204,7.368
17.208,7.4
17.212,7.4
17.216,7.364
17.22,7.384
17.224,7.408
17.228,7.448
17.232,7.392
17.236,7.396
17.24,7.472
17.244,7.484
17.248,7.504
17.252,7.512
17.256,7.544
17.26,7.568
17.264,7.604
17.268,7.532
17.272,7.54
17.276,7.556
17.28,7.576
17.284,7.596
17.288,7.516
17.292,7.5
17.296,7.504
17.3,7.512
17.304,7.484
17.308,7.484
17.312,7.444
17.316,7.4
17.32,7.308
17.324,7.328
17.328,7.364
17.332,7.42
17.336,7.352
17.34,7.34
17.344,7.332
17.348,7.292
17.352,7.308
17.356,7.304
17.36,7.36
17.364,7.304
17.368,7.324
17.372,7.368
17.376,7.388
17.38,7.408
17.384,7.348
17.388,7.316
17.392,7.252
17.396,7.156
17.4,7.068
17.404,7.24
17.408,7.612
17.412,8.096
17.416,8.688
17.42,9.224
17.424,9.856
17.428,10.308
17.432,9.888
17.436,8.808
17.44,8.096
17.444,7.752
17.448,7.472
17.452,7.316
17.456,7.344
17.46,7.472
17.464,7.576
17.468,7.468
17.472,7.444
17.476,7.488
17.48,7.492
17.484,7.472
17.488,7.44
17.492,7.464
17.496,7.46
17.5,7.428
17.504,7.436
17.508,7.428
17.512,7.48
17.516,7.468
17.52,7.496
17.524,7.516
17.528,7.504
17.532,7.508
17.536,7.548
17.54,7.508
17.544,7.448
17.548,7.496
17.552,7.552
17.556,7.564
17.56,7.54
17.564,7.548
17.568,7.552
17.572,7.552
17.576,7.58
17.58,7.56
17.584,7.584
17.588,7.596
17.592,7.612
17.596,7.6
17.6,7.584
17.604,7.644
17.608,7.648
17.612,7.636
17.616,7.656
17.62,7.676
17.624,7.708
17.628,7.752
17.632,7.768
17.636,7.78
17.64,7.86
17.644,7.86
17.648,7.92
17.652,7.928
17.656,7.948
17.66,7.932
17.664,8.008
17.668,8.04
17.672,8.06
17.676,8.108
17.68,8.144
17.684,8.16
17.688,8.18
17.692,8.224
17.696,8.276
17.7,8.316
17.704,8.316
17.708,8.348
17.712,8.38
17.716,8.352
17.72,8.388
17.724,8.376
17.728,8.324
17.732,8.252
17.736,8.208
17.74,8.136
17.744,8.008
17.748,7.96
17.752,7.836
17.756,7.8
17.76,7.74
17.764,7.696
17.768,7.612
17.772,7.612
17.776,7.584
17.78,7.556
17.784,7.524
17.788,7.512
17.792,7.516
17.796,7.516
17.8,7.548
17.804,7.516
17.808,7.504
17.812,7.48
17.816,7.464
17.82,7.504
17.824,7.52
17.828,7.504
17.832,7.472
17.836,7.456
17.84,7.496
17.844,7.5
17.848,7.496
17.852,7.476
17.856,7.504
17.86,7.532
17.864,7.524
17.868,7.516
17.872,7.512
17.876,7.524
17.88,7.488
17.884,7.48
17.888,7.512
17.892,7.504
17.896,7.492
17.9,7.476
17.904,7.472
17.908,7.528
17.912,7.492
17.916,7.48
17.92,7.456
17.924,7.456
17.928,7.504
17.932,7.472
17.936,7.448
17.94,7.528
17.944,7.504
17.948,7.472
17.952,7.428
17.956,7.456
17.96,7.48
17.964,7.432
17.968,7.436
17.972,7.468
17.976,7.5
17.98,7.46
17.984,7.404
17.988,7.436
17.992,7.464
17.996,7.456
18,7.452
18.004,7.436
18.008,7.46
18.012,7.468
18.016,7.448
18.02,7.46
18.024,7.42
18.028,7.452
18.032,7.448
18.036,7.432
18.04,7.412
18.044,7.42
18.048,7.412
18.052,7.42
18.056,7.448
18.06,7.424
18.064,7.464
18.068,7.432
18.072,7.436
18.076,7.444
18.08,7.428
18.084,7.42
18.088,7.412
18.092,7.48
18.096,7.456
18.1,7.412
18.104,7.464
18.108,7.476
18.112,7.476
18.116,7.444
18.12,7.404
18.124,7.456
18.128,7.452
18.132,7.424
18.136,7.428
18.14,7.428
18.144,7.448
18.148,7.456
18.152,7.42
18.156,7.468
18.16,7.428
18.164,7.408
18.168,7.452
18.172,7.436
18.176,7.44
18.18,7.456
18.184,7.436
18.188,7.448
18.192,7.464
18.196,7.46
18.2,7.46
18.204,7.448
18.208,7.44
18.212,7.452
18.216,7.448
18.22,7.46
18.224,7.468
18.228,7.552
18.232,7.556
18.236,7.576
18.24,7.6
18.244,7.572
18.248,7.588
18.252,7.608
18.256,7.636
18.26,7.644
18.264,7.644
18.268,7.56
18.272,7.608
18.276,7.62
18.28,7.588
18.284,7.592
18.288,7.576
18.292,7.54
18.296,7.528
18.3,7.532
18.304,7.484
18.308,7.44
18.312,7.448
18.316,7.424
18.32,7.384
18.324,7.412
18.328,7.436
18.332,7.424
18.336,7.388
18.34,7.436
18.344,7.48
18.348,7.4
18.352,7.392
18.356,7.404
18.36,7.452
18.364,7.444
18.368,7.428
18.372,7.448
18.376,7.416
18.38,7.284
18.384,7.152
18.388,7.248
18.392,7.476
18.396,7.832
18.4,8.352
18.404,8.98
18.408,9.676
18.412,10.404
18.416,10.652
18.42,9.844
18.424,8.784
18.428,8.164
18.432,7.844
18.436,7.632
18.44,7.54
18.444,7.6
18.448,7.684
18.452,7.672
18.456,7.64
18.46,7.644
18.464,7.636
18.468,7.612
18.472,7.588
18.476,7.572
18.48,7.584
18.484,7.532
18.488,7.564
18.492,7.612
18.496,7.572
18.5,7.576
18.504,7.572
18.508,7.6
18.512,7.576
18.516,7.624
18.52,7.62
18.524,7.64
18.528,7.644
18.532,7.632
18.536,7.64
18.54,7.628
18.544,7.628
18.548,7.62
18.552,7.656
18.556,7.688
18.56,7.696
18.564,7.652
18.568,7.672
18.572,7.692
18.576,7.748
18.58,7.784
18.584,7.724
18.588,7.688
18.592,7.772
18.596,7.768
18.6,7.768
18.604,7.812
18.608,7.812
18.612,7.856
18.616,7.864
18.62,7.88
18.624,7.908
18.628,7.932
18.632,7.98
18.636,7.984
18.64,8
18.644,8.076
18.648,8.14
18.652,8.132
18.656,8.132
18.66,8.204
18.664,8.252
18.668,8.252
18.672,8.268
18.676,8.328
18.68,8.34
18.684,8.372
18.688,8.432
18.692,8.428
18.696,8.468
18.7,8.452
18.704,8.492
18.708,8.504
18.712,8.48
18.716,8.42
18.72,8.348
18.724,8.284
18.728,8.224
18.732,8.14
18.736,8.04
18.74,7.944
18.744,7.928
18.748,7.868
18.752,7.796
18.756,7.744
18.76,7.724
18.764,7.668
18.768,7.656
18.772,7.656
18.776,7.64
18.78,7.628
18.784,7.608
18.788,7.596
18.792,7.62
18.796,7.596
18.8,7.6
18.804,7.596
18.808,7.572
18.812,7.624
18.816,7.632
18.82,7.616
18.824,7.6
18.828,7.604
18.832,7.596
18.836,7.596
18.84,7.624
18.844,7.656
18.848,7.612
18.852,7.616
18.856,7.644
18.86,7.676
18.864,7.656
18.868,7.604
18.872,7.604
18.876,7.648
18.88,7.676
18.884,7.64
18.888,7.636
18.892,7.692
18.896,7.664
18.9,7.64
18.904,7.656
18.908,7.632
18.912,7.652
18.916,7.68
18.92,7.636
18.924,7.676
18.928,7.652
18.932,7.636
18.936,7.644
18.94,7.64
18.944,7.66
18.948,7.668
18.952,7.664
18.956,7.672
18.96,7.652
18.964,7.66
18.968,7.636
18.972,7.644
18.976,7.656
18.98,7.608
18.984,7.604
18.988,7.664
18.992,7.644
18.996,7.636
19,7.624
19.004,7.628
19.008,7.656
19.012,7.648
19.016,7.604
19.02,7.632
19.024,7.636
19.028,7.66
19.032,7.68
19.036,7.644
19.04,7.66
19.044,7.684
19.048,7.656
19.052,7.652
19.056,7.612
19.06,7.608
19.064,7.664
19.068,7.624
19.072,7.652
19.076,7.636
19.08,7.632
19.084,7.624
19.088,7.576
19.092,7.62
19.096,7.688
19.1,7.66
19.104,7.632
19.108,7.624
19.112,7.612
19.116,7.628
19.12,7.64
19.124,7.696
19.128,7.74
19.132,7.752
19.136,7.656
19.14,7.704
19.144,7.772
19.148,7.716
19.152,7.616
19.156,7.584
19.16,7.644
19.164,7.62
19.168,7.608
19.172,7.628
19.176,7.628
19.18,7.648
19.184,7.68
19.188,7.652
19.192,7.66
19.196,7.712
19.2,7.736
19.204,7.732
19.208,7.692
19.212,7.768
19.216,7.828
19.22,7.816
19.224,7.78
19.228,7.756
19.232,7.772
19.236,7.82
19.24,7.816
19.244,7.868
19.248,7.824
19.252,7.812
19.256,7.828
19.26,7.776
19.264,7.764
19.268,7.728
19.272,7.74
19.276,7.772
19.28,7.724
19.284,7.68
19.288,7.628
19.292,7.628
19.296,7.6
19.3,7.612
19.304,7.688
19.308,7.576
19.312,7.5
19.316,7.552
19.32,7.588
19.324,7.608
19.328,7.596
19.332,7.616
19.336,7.596
19.34,7.556
19.344,7.584
19.348,7.588
19.352,7.58
19.356,7.596
19.36,7.572
19.364,7.44
19.368,7.28
19.372,7.396
19.376,7.668
19.38,8.028
19.384,8.54
19.388,9.12
19.392,9.796
19.396,10.56
19.4,10.68
19.404,9.84
19.408,8.86
19.412,8.264
19.416,7.868
19.42,7.7
19.424,7.632
19.428,7.704
19.432,7.784
19.436,7.732
19.44,7.732
19.444,7.748
19.448,7.704
19.452,7.66
19.456,7.668
19.46,7.716
19.464,7.7
19.468,7.708
19.472,7.696
19.476,7.688
19.48,7.708
19.484,7.712
19.488,7.708
19.492,7.728
19.496,7.72
19.5,7.728
19.504,7.692
19.508,7.728
19.512,7.704
19.516,7.724
19.52,7.712
19.524,7.744
19.528,7.74
19.532,7.744
19.536,7.768
19.54,7.776
19.544,7.788
19.548,7.78
19.552,7.788
19.556,7.8
19.56,7.808
19.564,7.832
19.568,7.82
19.572,7.892
19.576,7.92
19.58,7.888
19.584,7.836
19.588,7.892
19.592,7.968
19.596,7.992
19.6,8.008
19.604,8.008
19.608,7.988
19.612,8.016
19.616,8.076
19.62,8.124
19.624,8.112
19.628,8.148
19.632,8.208
19.636,8.24
19.64,8.248
19.644,8.264
19.648,8.34
19.652,8.384
19.656,8.456
19.66,8.444
19.664,8.524
19.668,8.592
19.672,8.548
19.676,8.516
19.68,8.568
19.684,8.588
19.688,8.54
19.692,8.604
19.696,8.58
19.7,8.532
19.704,8.432
19.708,8.448
19.712,8.332
19.716,8.188
19.72,8.108
19.724,8.156
19.728,8.18
19.732,7.976
19.736,7.772
19.74,7.772
19.744,7.82
19.748,7.808
19.752,7.768
19.756,7.68
19.76,7.704
19.764,7.636
19.768,7.784
19.772,7.876
19.776,7.928
19.78,7.948
19.784,7.84
19.788,7.656
19.792,7.612
19.796,7.764
19.8,7.828
19.804,7.812
19.808,7.708
19.812,7.58
19.816,7.496
19.82,7.532
19.824,7.62
19.828,7.652
19.832,7.708
19.836,7.684
19.84,7.716
19.844,7.656
19.848,7.664
19.852,7.684
19.856,7.692
19.86,7.716
19.864,7.692
19.868,7.64
19.872,7.668
19.876,7.712
19.88,7.68
19.884,7.68
19.888,7.66
19.892,7.7
19.896,7.716
19.9,7.692
19.904,7.648
19.908,7.624
19.912,7.672
19.916,7.672
19.92,7.648
19.924,7.648
19.928,7.656
19.932,7.66
19.936,7.64
19.94,7.64
19.944,7.632
19.948,7.668
19.952,7.616
19.956,7.624
19.96,7.62
19.964,7.628
19.968,7.596
19.972,7.628
19.976,7.632
19.98,7.632
19.984,7.604
19.988,7.608
19.992,7.596
19.996,7.604
20,7.6
20.004,7.596
20.008,7.6
20.012,7.604
20.016,7.58
20.02,7.588
20.024,7.628
20.028,7.672
20.032,7.62
20.036,7.516
20.04,7.544
20.044,7.54
20.048,7.548
20.052,7.552
20.056,7.564
20.06,7.576
20.064,7.568
20.068,7.528
20.072,7.568
20.076,7.56
20.08,7.588
20.084,7.564
20.088,7.576
20.092,7.552
20.096,7.548
20.1,7.532
20.104,7.512
20.108,7.556
20.112,7.592
20.116,7.556
20.12,7.532
20.124,7.544
20.128,7.544
20.132,7.548
20.136,7.56
20.14,7.548
20.144,7.572
20.148,7.564
20.152,7.544
20.156,7.576
20.16,7.572
20.164,7.568
20.168,7.568
20.172,7.636
20.176,7.596
20.18,7.54
20.184,7.572
20.188,7.576
20.192,7.572
20.196,7.58
20.2,7.58
20.204,7.604
20.208,7.644
20.212,7.688
20.216,7.7
20.22,7.692
20.224,7.732
20.228,7.76
20.232,7.74
20.236,7.768
20.24,7.728
20.244,7.748
20.248,7.776
20.252,7.7
20.256,7.688
20.26,7.692
20.264,7.68
20.268,7.692
20.272,7.62
20.276,7.576
20.28,7.588
20.284,7.532
20.288,7.5
20.292,7.512
20.296,7.52
20.3,7.476
20.304,7.456
20.308,7.484
20.312,7.488
20.316,7.456
20.32,7.496
20.324,7.524
20.328,7.528
20.332,7.512
20.336,7.5
20.34,7.46
20.344,7.484
20.348,7.524
20.352,7.464
20.356,7.388
20.36,7.316
20.364,7.228
20.368,7.368
20.372,7.648
20.376,8.056
20.38,8.68
20.384,9.24
20.388,9.964
20.392,10.608
20.396,10.4
20.4,9.42
20.404,8.56
20.408,8.12
20.412,7.868
20.416,7.688
20.42,7.588
20.424,7.66
20.428,7.7
20.432,7.696
20.436,7.656
20.44,7.68
20.444,7.66
20.448,7.6
20.452,7.56
20.456,7.568
20.46,7.596
20.464,7.6
20.468,7.556
20.472,7.62
20.476,7.636
20.48,7.592
20.484,7.552
20.488,7.564
20.492,7.572
20.496,7.612
20.5,7.616
20.504,7.596
20.508,7.608
20.512,7.652
20.516,7.648
20.52,7.608
20.524,7.64
20.528,7.66
20.532,7.676
20.536,7.668
20.54,7.716
20.544,7.732
20.548,7.724
20.552,7.716
20.556,7.724
20.56,7.764
20.564,7.764
20.568,7.744
20.572,7.736
20.576,7.76
20.58,7.82
20.584,7.808
20.588,7.82
20.592,7.824
20.596,7.864
20.6,7.852
20.604,7.892
20.608,7.936
20.612,7.988
20.616,8
20.62,8.028
20.624,8.068
20.628,8.132
20.632,8.144
20.636,8.18
20.64,8.18
20.644,8.216
20.648,8.232
20.652,8.248
20.656,8.252
20.66,8.312
20.664,8.36
20.668,8.356
20.672,8.392
20.676,8.396
20.68,8.432
20.684,8.408
20.688,8.38
20.692,8.376
20.696,8.332
20.7,8.264
20.704,8.168
20.708,8.108
20.712,8.06
20.716,7.98
20.72,7.884
20.724,7.804
20.728,7.728
20.732,7.688
20.736,7.644
20.74,7.624
20.744,7.608
20.748,7.568
20.752,7.528
20.756,7.528
20.76,7.552
20.764,7.516
20.768,7.484
20.772,7.508
20.776,7.52
20.78,7.54
20.784,7.536
20.788,7.512
20.792,7.52
20.796,7.484
20.8,7.532
20.804,7.508
20.808,7.516
20.812,7.54
20.816,7.536
20.82,7.532
20.824,7.576
20.828,7.556
20.832,7.548
20.836,7.536
20.84,7.552
20.844,7.564
20.848,7.544
20.852,7.528
20.856,7.512
20.86,7.524
20.864,7.552
20.868,7.536
20.872,7.52
20.876,7.54
20.88,7.544
20.884,7.504
20.888,7.52
20.892,7.508
20.896,7.532
20.9,7.484
20.904,7.5
20.908,7.512
20.912,7.504
20.916,7.524
20.92,7.476
20.924,7.472
20.928,7.52
20.932,7.504
20.936,7.492
20.94,7.468
20.944,7.492
20.948,7.484
20.952,7.476
20.956,7.468
20.96,7.476
20.964,7.496
20.968,7.472
20.972,7.476
20.976,7.476
20.98,7.508
20.984,7.468
20.988,7.488
20.992,7.492
20.996,7.508
21,7.496
21.004,7.476
21.008,7.476
21.012,7.496
21.016,7.54
21.02,7.492
21.024,7.484
21.028,7.48
21.032,7.484
21.036,7.488
21.04,7.468
21.044,7.552
21.048,7.556
21.052,7.476
21.056,7.484
21.06,7.484
21.064,7.492
21.068,7.468
21.072,7.464
21.076,7.512
21.08,7.488
21.084,7.5
21.088,7.5
21.092,7.484
21.096,7.512
21.1,7.496
21.104,7.484
21.108,7.5
21.112,7.504
21.116,7.48
21.12,7.516
21.124,7.508
21.128,7.52
21.132,7.492
21.136,7.488
21.14,7.532
21.144,7.548
21.148,7.592
21.152,7.592
21.156,7.596
21.16,7.62
21.164,7.668
21.168,7.676
21.172,7.66
21.176,7.712
21.18,7.696
21.184,7.664
21.188,7.672
21.192,7.664
21.196,7.648
21.2,7.62
21.204,7.588
21.208,7.596
21.212,7.584
21.216,7.576
21.22,7.572
21.224,7.576
21.228,7.468
21.232,7.356
21.236,7.304
21.24,7.356
21.244,7.42
21.248,7.444
21.252,7.4
21.256,7.376
21.26,7.384
21.264,7.36
21.268,7.268
21.272,7.288
21.276,7.336
21.28,7.36
21.284,7.324
21.288,7.372
21.292,7.384
21.296,7.392
21.3,7.3
21.304,7.136
21.308,7.168
21.312,7.372
21.316,7.692
21.32,8.132
21.324,8.776
21.328,9.356
21.332,10.148
21.336,10.452
21.34,9.852
21.344,8.836
21.348,8.212
21.352,7.848
21.356,7.636
21.36,7.444
21.364,7.432
21.368,7.484
21.372,7.54
21.376,7.592
21.38,7.596
21.384,7.568
21.388,7.564
21.392,7.516
21.396,7.496
21.4,7.524
21.404,7.488
21.408,7.54
21.412,7.588
21.416,7.504
21.42,7.416
21.424,7.484
21.428,7.508
21.432,7.512
21.436,7.52
21.44,7.508
21.444,7.564
21.448,7.576
21.452,7.516
21.456,7.588
21.46,7.604
21.464,7.556
21.468,7.524
21.472,7.6
21.476,7.596
21.48,7.54
21.484,7.536
21.488,7.612
21.492,7.696
21.496,7.6
21.5,7.572
21.504,7.604
21.508,7.616
21.512,7.68
21.516,7.748
21.52,7.696
21.524,7.796
21.528,7.7
21.532,7.692
21.536,7.76
21.54,7.772
21.544,7.88
21.548,7.836
21.552,7.82
21.556,7.92
21.56,7.928
21.564,7.972
21.568,8.024
21.572,7.952
21.576,7.992
21.58,8.124
21.584,8.16
21.588,8.188
21.592,8.248
21.596,8.232
21.6,8.212
21.604,8.244
21.608,8.248
21.612,8.344
21.616,8.404
21.62,8.392
21.624,8.452
21.628,8.436
21.632,8.412
21.636,8.264
21.64,8.264
21.644,8.22
21.648,8.132
21.652,8.016
21.656,7.832
21.66,7.908
21.664,7.832
21.668,7.716
21.672,7.58
21.676,7.62
21.68,7.688
21.684,7.512
21.688,7.536
21.692,7.528
21.696,7.608
21.7,7.572
21.704,7.46
21.708,7.476
21.712,7.476
21.716,7.544
21.72,7.516
21.724,7.412
21.728,7.476
21.732,7.464
21.736,7.528
21.74,7.66
21.744,7.528
21.748,7.356
21.752,7.388
21.756,7.452
21.76,7.528
21.764,7.564
21.768,7.516
21.772,7.6
21.776,7.548
21.78,7.528
21.784,7.52
21.788,7.432
21.792,7.468
21.796,7.536
21.8,7.504
21.804,7.428
21.808,7.436
21.812,7.54
21.816,7.54
21.82,7.5
21.824,7.516
21.828,7.536
21.832,7.516
21.836,7.548
21.84,7.624
21.844,7.444
21.848,7.46
21.852,7.468
21.856,7.516
21.86,7.512
21.864,7.528
21.868,7.508
21.872,7.472
21.876,7.52
21.88,7.536
21.884,7.532
21.888,7.52
21.892,7.504
21.896,7.532
21.9,7.52
21.904,7.52
21.908,7.512
21.912,7.552
21.916,7.54
21.92,7.524
21.924,7.556
21.928,7.588
21.932,7.576
21.936,7.56
21.94,7.568
21.944,7.564
21.948,7.576
21.952,7.476
21.956,7.468
21.96,7.5
21.964,7.508
21.968,7.5
21.972,7.5
21.976,7.52
21.98,7.528
21.984,7.484
21.988,7.504
21.992,7.484
21.996,7.476
22,7.452
22.004,7.412
22.008,7.436
22.012,7.468
22.016,7.464
22.02,7.456
22.024,7.512
22.028,7.54
22.032,7.536
22.036,7.54
22.04,7.564
22.044,7.548
22.048,7.564
22.052,7.576
22.056,7.604
22.06,7.624
22.064,7.612
22.068,7.568
22.072,7.576
22.076,7.576
22.08,7.576
22.084,7.588
22.088,7.56
22.092,7.552
22.096,7.528
22.1,7.496
22.104,7.412
22.108,7.38
22.112,7.424
22.116,7.396
22.12,7.388
22.124,7.404
22.128,7.408
22.132,7.416
22.136,7.404
22.14,7.372
22.144,7.416
22.148,7.412
22.152,7.404
22.156,7.396
22.16,7.436
22.164,7.444
22.168,7.412
22.172,7.4
22.176,7.292
22.18,7.196
22.184,7.196
22.188,7.424
22.192,7.776
22.196,8.304
22.2,8.876
22.204,9.352
22.208,9.904
22.212,10.172
22.216,9.564
22.22,8.484
22.224,7.948
22.228,7.708
22.232,7.476
22.236,7.348
22.24,7.352
22.244,7.452
22.248,7.58
22.252,7.556
22.256,7.532
22.26,7.52
22.264,7.528
22.268,7.528
22.272,7.504
22.276,7.52
22.28,7.528
22.284,7.524
22.288,7.52
22.292,7.532
22.296,7.544
22.3,7.552
22.304,7.552
22.308,7.548
22.312,7.556
22.316,7.54
22.32,7.536
22.324,7.536
22.328,7.536
22.332,7.568
22.336,7.588
22.34,7.588
22.344,7.604
22.348,7.624
22.352,7.596
22.356,7.608
22.36,7.604
22.364,7.64
22.368,7.624
22.372,7.624
22.376,7.664
22.38,7.696
22.384,7.688
22.388,7.68
22.392,7.68
22.396,7.736
22.4,7.736
22.404,7.764
22.408,7.752
22.412,7.804
22.416,7.828
22.42,7.832
22.424,7.852
22.428,7.908
22.432,7.936
22.436,7.936
22.44,7.972
22.444,8.032
22.448,8.032
22.452,8.06
22.456,8.096
22.46,8.152
22.464,8.18
22.468,8.188
22.472,8.232
22.476,8.28
22.48,8.296
22.484,8.312
22.488,8.348
22.492,8.348
22.496,8.392
22.5,8.388
22.504,8.352
22.508,8.34
22.512,8.312
22.516,8.264
22.52,8.144
22.524,8.096
22.528,8.048
22.532,7.992
22.536,7.892
22.54,7.824
22.544,7.76
22.548,7.74
22.552,7.66
22.556,7.636
22.56,7.608
22.564,7.596
22.568,7.58
22.572,7.548
22.576,7.548
22.58,7.548
22.584,7.544
22.588,7.532
22.592,7.532
22.596,7.56
22.6,7.54
22.604,7.504
22.608,7.54
22.612,7.544
22.616,7.544
22.62,7.536
22.624,7.524
22.628,7.556
22.632,7.548
22.636,7.536
22.64,7.532
22.644,7.544
22.648,7.54
22.652,7.536
22.656,7.536
22.66,7.56
22.664,7.564
22.668,7.536
22.672,7.516
22.676,7.52
22.68,7.544
22.684,7.524
22.688,7.504
22.692,7.512
22.696,7.544
22.7,7.548
22.704,7.52
22.708,7.508
22.712,7.54
22.716,7.5
22.72,7.484
22.724,7.524
22.728,7.5
22.732,7.512
22.736,7.508
22.74,7.504
22.744,7.516
22.748,7.512
22.752,7.5
22.756,7.484
22.76,7.476
22.764,7.488
22.768,7.488
22.772,7.46
22.776,7.48
22.78,7.488
22.784,7.468
22.788,7.464
22.792,7.464
22.796,7.48
22.8,7.484
22.804,7.452
22.808,7.488
22.812,7.5
22.816,7.48
22.82,7.48
22.824,7.468
22.828,7.464
22.832,7.484
22.836,7.464
22.84,7.46
22.844,7.496
22.848,7.5
22.852,7.48
22.856,7.44
22.86,7.464
22.864,7.472
22.868,7.464
22.872,7.48
22.876,7.476
22.88,7.492
22.884,7.476
22.888,7.464
22.892,7.504
22.896,7.524
22.9,7.556
22.904,7.58
22.908,7.58
22.912,7.628
22.916,7.632
22.92,7.604
22.924,7.632
22.928,7.664
22.932,7.68
22.936,7.628
22.94,7.608
22.944,7.632
22.948,7.628
22.952,7.584
22.956,7.596
22.96,7.608
22.964,7.588
22.968,7.532
22.972,7.48
22.976,7.528
22.98,7.492
22.984,7.44
22.988,7.388
22.992,7.396
22.996,7.424
23,7.428
23.004,7.416
23.008,7.436
23.012,7.432
23.016,7.424
23.02,7.396
23.024,7.416
23.028,7.392
23.032,7.424
23.036,7.388
23.04,7.396
23.044,7.408
23.048,7.352
23.052,7.204
23.056,7.108
23.06,7.248
23.064,7.556
23.068,7.94
23.072,8.488
23.076,9.08
23.08,9.748
23.084,10.356
23.088,10.3
23.092,9.288
23.096,8.352
23.1,7.872
23.104,7.572
23.108,7.44
23.112,7.376
23.116,7.448
23.12,7.524
23.124,7.52
23.128,7.54
23.132,7.512
23.136,7.476
23.14,7.48
23.144,7.484
23.148,7.488
23.152,7.504
23.156,7.484
23.16,7.484
23.164,7.492
23.168,7.488
23.172,7.476
23.176,7.492
23.18,7.536
23.184,7.524
23.188,7.512
23.192,7.504
23.196,7.552
23.2,7.564
23.204,7.536
23.208,7.532
23.212,7.54
23.216,7.576
23.22,7.54
23.224,7.56
23.228,7.572
23.232,7.584
23.236,7.564
23.24,7.576
23.244,7.592
23.248,7.632
23.252,7.612
23.256,7.616
23.26,7.644
23.264,7.668
23.268,7.672
23.272,7.676
23.276,7.688
23.28,7.732
23.284,7.76
23.288,7.768
23.292,7.788
23.296,7.828
23.3,7.852
23.304,7.88
23.308,7.88
23.312,7.94
23.316,7.964
23.32,7.984
23.324,8.04
23.328,8.06
23.332,8.088
23.336,8.14
23.34,8.152
23.344,8.228
23.348,8.244
23.352,8.264
23.356,8.276
23.36,8.316
23.364,8.36
23.368,8.36
23.372,8.364
23.376,8.372
23.38,8.376
23.384,8.308
23.388,8.26
23.392,8.204
23.396,8.112
23.4,8.052
23.404,7.932
23.408,7.86
23.412,7.82
23.416,7.772
23.42,7.656
23.424,7.612
23.428,7.572
23.432,7.58
23.436,7.536
23.44,7.488
23.444,7.496
23.448,7.472
23.452,7.496
23.456,7.472
23.46,7.48
23.464,7.484
23.468,7.452
23.472,7.448
23.476,7.456
23.48,7.468
23.484,7.472
23.488,7.448
23.492,7.436
23.496,7.472
23.5,7.472
23.504,7.464
23.508,7.444
23.512,7.484
23.516,7.5
23.52,7.472
23.524,7.456
23.528,7.488
23.532,7.496
23.536,7.468
23.54,7.476
23.544,7.496
23.548,7.488
23.552,7.5
23.556,7.468
23.56,7.464
23.564,7.524
23.568,7.492
23.572,7.48
23.576,7.456
23.58,7.504
23.584,7.508
23.588,7.5
23.592,7.46
23.596,7.492
23.6,7.504
23.604,7.452
23.608,7.464
23.612,7.476
23.616,7.476
23.62,7.44
23.624,7.436
23.628,7.464
23.632,7.464
23.636,7.432
23.64,7.428
23.644,7.456
23.648,7.448
23.652,7.432
23.656,7.432
23.66,7.436
23.664,7.424
23.668,7.42
23.672,7.412
23.676,7.424
23.68,7.428
23.684,7.42
23.688,7.416
23.692,7.4
23.696,7.432
23.7,7.428
23.704,7.384
23.708,7.38
23.712,7.408
23.716,7.432
23.72,7.412
23.724,7.392
23.728,7.372
23.732,7.428
23.736,7.392
23.74,7.36
23.744,7.404
23.748,7.404
23.752,7.396
23.756,7.408
23.76,7.392
23.764,7.4
23.768,7.4
23.772,7.38
23.776,7.392
23.78,7.424
23.784,7.388
23.788,7.392
23.792,7.396
23.796,7.412
23.8,7.412
23.804,7.392
23.808,7.404
23.812,7.392
23.816,7.452
23.82,7.476
23.824,7.516
23.828,7.524
23.832,7.536
23.836,7.528
23.84,7.524
23.844,7.6
23.848,7.652
23.852,7.604
23.856,7.552
23.86,7.536
23.864,7.536
23.868,7.532
23.872,7.508
23.876,7.484
23.88,7.488
23.884,7.448
23.888,7.384
23.892,7.396
23.896,7.4
23.9,7.344
23.904,7.308
23.908,7.316
23.912,7.34
23.916,7.348
23.92,7.308
23.924,7.312
23.928,7.324
23.932,7.324
23.936,7.288
23.94,7.288
23.944,7.332
23.948,7.316
23.952,7.328
23.956,7.324
23.96,7.328
23.964,7.308
23.968,7.192
23.972,7.04
23.976,7.084
23.98,7.324
23.984,7.628
23.988,8.096
23.992,8.72
23.996,9.352
24,10.044
24.004,10.428
24.008,9.828
24.012,8.788
24.016,8.108
24.02,7.776
24.024,7.544
24.028,7.428
24.032,7.42
24.036,7.488
24.04,7.512
24.044,7.484
24.048,7.468
24.052,7.444
24.056,7.444
24.06,7.44
24.064,7.452
24.068,7.436
24.072,7.42
24.076,7.416
24.08,7.444
24.084,7.456
24.088,7.412
24.092,7.424
24.096,7.444
24.1,7.468
24.104,7.448
24.108,7.432
24.112,7.468
24.116,7.488
24.12,7.468
24.124,7.468
24.128,7.492
24.132,7.524
24.136,7.508
24.14,7.468
24.144,7.528
24.148,7.524
24.152,7.532
24.156,7.536
24.16,7.536
24.164,7.548
24.168,7.556
24.172,7.552
24.176,7.576
24.18,7.576
24.184,7.616
24.188,7.592
24.192,7.608
24.196,7.66
24.2,7.688
24.204,7.684
24.208,7.716
24.212,7.76
24.216,7.796
24.22,7.768
24.224,7.8
24.228,7.852
24.232,7.912
24.236,7.908
24.24,7.94
24.244,8
24.248,8.056
24.252,8.068
24.256,8.08
24.26,8.116
24.264,8.172
24.268,8.192
24.272,8.196
24.276,8.248
24.28,8.312
24.284,8.32
24.288,8.328
24.292,8.336
24.296,8.336
24.3,8.32
24.304,8.24
24.308,8.196
24.312,8.128
24.316,8.072
24.32,7.96
24.324,7.872
24.328,7.816
24.332,7.74
24.336,7.676
24.34,7.596
24.344,7.6
24.348,7.568
24.352,7.492
24.356,7.48
24.36,7.46
24.364,7.448
24.368,7.444
24.372,7.416
24.376,7.42
24.38,7.42
24.384,7.428
24.388,7.396
24.392,7.388
24.396,7.416
24.4,7.428
24.404,7.4
24.408,7.4
24.412,7.428
24.416,7.436
24.42,7.4
24.424,7.404
24.428,7.4
24.432,7.44
24.436,7.4
24.44,7.396
24.444,7.404
24.448,7.452
24.452,7.424
24.456,7.408
24.46,7.416
24.464,7.42
24.468,7.436
24.472,7.436
24.476,7.42
24.48,7.432
24.484,7.424
24.488,7.408
24.492,7.412
24.496,7.416
24.5,7.428
24.504,7.388
24.508,7.396
24.512,7.412
24.516,7.408
24.52,7.4
24.524,7.376
24.528,7.4
24.532,7.404
24.536,7.392
24.54,7.376
24.544,7.384
24.548,7.38
24.552,7.372
24.556,7.352
24.56,7.364
24.564,7.396
24.568,7.38
24.572,7.36
24.576,7.344
24.58,7.4
24.584,7.36
24.588,7.332
24.592,7.336
24.596,7.376
24.6,7.396
24.604,7.364
24.608,7.344
24.612,7.36
24.616,7.368
24.62,7.348
24.624,7.332
24.628,7.32
24.632,7.336
24.636,7.348
24.64,7.336
24.644,7.352
24.648,7.356
24.652,7.324
24.656,7.32
24.66,7.34
24.664,7.352
24.668,7.336
24.672,7.316
24.676,7.32
24.68,7.336
24.684,7.336
24.688,7.324
24.692,7.32
24.696,7.328
24.7,7.34
24.704,7.324
24.708,7.332
24.712,7.356
24.716,7.348
24.72,7.34
24.724,7.368
24.728,7.432
24.732,7.46
24.736,7.464
24.74,7.444
24.744,7.444
24.748,7.508
24.752,7.544
24.756,7.516
24.76,7.512
24.764,7.48
24.768,7.476
24.772,7.432
24.776,7.424
24.78,7.472
24.784,7.42
24.788,7.392
24.792,7.364
24.796,7.348
24.8,7.344
24.804,7.304
24.808,7.236
24.812,7.264
24.816,7.268
24.82,7.236
24.824,7.252
24.828,7.244
24.832,7.284
24.836,7.244
24.84,7.236
24.844,7.24
24.848,7.264
24.852,7.244
24.856,7.224
24.86,7.252
24.864,7.264
24.868,7.256
24.872,7.232
24.876,7.104
24.88,7.012
24.884,7.02
24.888,7.228
24.892,7.564
24.896,8.06
24.9,8.684
24.904,9.236
24.908,9.956
24.912,10.364
24.916,9.772
24.92,8.708
24.924,8.064
24.928,7.736
24.932,7.508
24.936,7.328
24.94,7.32
24.944,7.424
24.948,7.452
24.952,7.408
24.956,7.392
24.96,7.392
24.964,7.396
24.968,7.372
24.972,7.356
24.976,7.34
24.98,7.352
24.984,7.372
24.988,7.34
24.992,7.356
24.996,7.376
25,7.38
25.004,7.356
25.008,7.372
25.012,7.384
25.016,7.416
25.02,7.38
25.024,7.364
25.028,7.42
25.032,7.412
25.036,7.408
25.04,7.412
25.044,7.424
25.048,7.46
25.052,7.444
25.056,7.428
25.06,7.46
25.064,7.488
25.068,7.48
25.072,7.46
25.076,7.452
25.08,7.492
25.084,7.496
25.088,7.516
25.092,7.544
25.096,7.572
25.1,7.608
25.104,7.592
25.108,7.612
25.112,7.652
25.116,7.66
25.12,7.696
25.124,7.68
25.128,7.724
25.132,7.768
25.136,7.776
25.14,7.8
25.144,7.856
25.148,7.92
25.152,7.936
25.156,7.944
25.16,7.992
25.164,8.052
25.168,8.064
25.172,8.072
25.176,8.108
25.18,8.156
25.184,8.22
25.188,8.2
25.192,8.216
25.196,8.26
25.2,8.26
25.204,8.232
25.208,8.212
25.212,8.176
25.216,8.116
25.22,8.012
25.224,7.972
25.228,7.892
25.232,7.824
25.236,7.708
25.24,7.632
25.244,7.58
25.248,7.58
25.252,7.5
25.256,7.456
25.26,7.424
25.264,7.436
25.268,7.404
25.272,7.348
25.276,7.348
25.28,7.36
25.284,7.356
25.288,7.344
25.292,7.32
25.296,7.36
25.3,7.36
25.304,7.328
25.308,7.324
25.312,7.364
25.316,7.352
25.32,7.324
25.324,7.344
25.328,7.34
25.332,7.348
25.336,7.344
25.34,7.328
25.344,7.348
25.348,7.368
25.352,7.348
25.356,7.34
25.36,7.368
25.364,7.38
25.368,7.36
25.372,7.36
25.376,7.38
25.38,7.396
25.384,7.388
25.388,7.36
25.392,7.356
25.396,7.38
25.4,7.384
25.404,7.364
25.408,7.344
25.412,7.36
25.416,7.388
25.42,7.38
25.424,7.352
25.428,7.368
25.432,7.352
25.436,7.356
25.44,7.324
25.444,7.364
25.448,7.36
25.452,7.34
25.456,7.312
25.46,7.344
25.464,7.34
25.468,7.364
25.472,7.324
25.476,7.332
25.48,7.344
25.484,7.352
25.488,7.32
25.492,7.312
25.496,7.324
25.5,7.332
25.504,7.328
25.508,7.3
25.512,7.348
25.516,7.332
25.52,7.304
25.524,7.308
25.528,7.348
25.532,7.336
25.536,7.308
25.54,7.292
25.544,7.324
25.548,7.348
25.552,7.328
25.556,7.3
25.56,7.312
25.564,7.332
25.568,7.332
25.572,7.308
25.576,7.324
25.58,7.332
25.584,7.32
25.588,7.308
25.592,7.324
25.596,7.356
25.6,7.336
25.604,7.3
25.608,7.292
25.612,7.32
25.616,7.352
25.62,7.332
25.624,7.316
25.628,7.312
25.632,7.32
25.636,7.328
25.64,7.304
25.644,7.304
25.648,7.348
25.652,7.316
25.656,7.344
25.66,7.376
25.664,7.428
25.668,7.424
25.672,7.436
25.676,7.456
25.68,7.484
25.684,7.504
25.688,7.496
25.692,7.484
25.696,7.48
25.7,7.496
25.704,7.44
25.708,7.416
25.712,7.404
25.716,7.444
25.72,7.416
25.724,7.4
25.728,7.376
25.732,7.364
25.736,7.328
25.74,7.264
25.744,7.24
25.748,7.264
25.752,7.24
25.756,7.236
25.76,7.24
25.764,7.256
25.768,7.232
25.772,7.228
25.776,7.232
25.78,7.252
25.784,7.256
25.788,7.256
25.792,7.252
25.796,7.272
25.8,7.256
25.804,7.244
25.808,7.256
25.812,7.244
25.816,7.1
25.82,6.976
25.824,7.052
25.828,7.324
25.832,7.692
25.836,8.188
25.84,8.784
25.844,9.432
25.848,10.176
25.852,10.324
25.856,9.476
25.86,8.516
25.864,7.96
25.868,7.668
25.872,7.44
25.876,7.332
25.88,7.396
25.884,7.444
25.888,7.416
25.892,7.36
25.896,7.38
25.9,7.368
25.904,7.316
25.908,7.288
25.912,7.308
25.916,7.34
25.92,7.308
25.924,7.34
25.928,7.32
25.932,7.332
25.936,7.316
25.94,7.328
25.944,7.368
25.948,7.372
25.952,7.38
25.956,7.428
25.96,7.448
25.964,7.5
25.968,7.404
25.972,7.284
25.976,7.312
25.98,7.42
25.984,7.428
25.988,7.4
25.992,7.368
25.996,7.424
26,7.428
26.004,7.436
26.008,7.428
26.012,7.448
26.016,7.476
26.02,7.464
26.024,7.484
26.028,7.52
26.032,7.56
26.036,7.536
26.04,7.564
26.044,7.584
26.048,7.632
26.052,7.608
26.056,7.636
26.06,7.68
26.064,7.696
26.068,7.752
26.072,7.764
26.076,7.78
26.08,7.836
26.084,7.884
26.088,7.9
26.092,7.916
26.096,7.98
26.1,8.008
26.104,8.012
26.108,8.048
26.112,8.128
26.116,8.156
26.12,8.16
26.124,8.196
26.128,8.26
26.132,8.284
26.136,8.272
26.14,8.264
26.144,8.24
26.148,8.232
26.152,8.172
26.156,8.104
26.16,8.044
26.164,8
26.168,7.88
26.172,7.792
26.176,7.736
26.18,7.676
26.184,7.612
26.188,7.544
26.192,7.504
26.196,7.472
26.2,7.464
26.204,7.392
26.208,7.368
26.212,7.376
26.216,7.392
26.22,7.368
26.224,7.356
26.228,7.376
26.232,7.34
26.236,7.328
26.24,7.324
26.244,7.328
26.248,7.356
26.252,7.324
26.256,7.328
26.26,7.312
26.264,7.372
26.268,7.336
26.272,7.332
26.276,7.34
26.28,7.368
26.284,7.388
26.288,7.356
26.292,7.348
26.296,7.368
26.3,7.372
26.304,7.348
26.308,7.336
26.312,7.368
26.316,7.38
26.32,7.368
26.324,7.38
26.328,7.392
26.332,7.384
26.336,7.36
26.34,7.364
26.344,7.388
26.348,7.384
26.352,7.388
26.356,7.356
26.36,7.364
26.364,7.392
26.368,7.372
26.372,7.348
26.376,7.348
26.38,7.352
26.384,7.36
26.388,7.352
26.392,7.368
26.396,7.368
26.4,7.372
26.404,7.348
26.408,7.336
26.412,7.34
26.416,7.348
26.42,7.3
26.424,7.316
26.428,7.336
26.432,7.348
26.436,7.352
26.44,7.336
26.444,7.324
26.448,7.34
26.452,7.352
26.456,7.34
26.46,7.344
26.464,7.348
26.468,7.328
26.472,7.324
26.476,7.356
26.48,7.388
26.484,7.38
26.488,7.344
26.492,7.368
26.496,7.388
26.5,7.376
26.504,7.336
26.508,7.34
26.512,7.36
26.516,7.368
26.52,7.356
26.524,7.324
26.528,7.368
26.532,7.344
26.536,7.344
26.54,7.36
26.544,7.396
26.548,7.388
26.552,7.34
26.556,7.34
26.56,7.372
26.564,7.392
26.568,7.364
26.572,7.348
26.576,7.36
26.58,7.38
26.584,7.396
26.588,7.404
26.592,7.444
26.596,7.476
26.6,7.48
26.604,7.476
26.608,7.516
26.612,7.568
26.616,7.54
26.62,7.544
26.624,7.54
26.628,7.532
26.632,7.56
26.636,7.508
26.64,7.476
26.644,7.496
26.648,7.528
26.652,7.468
26.656,7.452
26.66,7.444
26.664,7.424
26.668,7.376
26.672,7.364
26.676,7.376
26.68,7.384
26.684,7.388
26.688,7.36
26.692,7.396
26.696,7.408
26.7,7.42
26.704,7.4
26.708,7.428
26.712,7.476
26.716,7.484
26.72,7.472
26.724,7.48
26.728,7.492
26.732,7.496
26.736,7.46
26.74,7.432
26.744,7.34
26.748,7.2
26.752,7.104
26.756,7.28
26.76,7.632
26.764,8.04
26.768,8.632
26.772,9.192
26.776,9.916
26.78,10.484
26.784,10.156
26.788,9.132
26.792,8.396
26.796,7.98
26.8,7.712
26.804,7.536
26.808,7.464
26.812,7.552
26.816,7.576
26.82,7.56
26.824,7.58
26.828,7.56
26.832,7.54
26.836,7.496
26.84,7.476
26.844,7.48
26.848,7.456
26.852,7.448
26.856,7.448
26.86,7.44
26.864,7.404
26.868,7.4
26.872,7.416
26.876,7.38
26.88,7.416
26.884,7.42
26.888,7.408
26.892,7.416
26.896,7.448
26.9,7.456
26.904,7.432
26.908,7.448
26.912,7.464
26.916,7.468
26.92,7.444
26.924,7.476
26.928,7.508
26.932,7.504
26.936,7.516
26.94,7.52
26.944,7.532
26.948,7.56
26.952,7.568
26.956,7.596
26.96,7.62
26.964,7.652
26.968,7.664
26.972,7.688
26.976,7.72
26.98,7.748
26.984,7.752
26.988,7.756
26.992,7.788
26.996,7.836
27,7.896
27.004,7.88
27.008,7.924
27.012,7.956
27.016,8.004
27.02,8.028
27.024,8.044
27.028,8.088
27.032,8.152
27.036,8.172
27.04,8.192
27.044,8.232
27.048,8.264
27.052,8.272
27.056,8.3
27.06,8.36
27.064,8.384
27.068,8.36
27.072,8.344
27.076,8.324
27.08,8.304
27.084,8.252
27.088,8.156
27.092,8.06
27.096,8.008
27.1,7.932
27.104,7.828
27.108,7.76
27.112,7.708
27.116,7.656
27.12,7.584
27.124,7.556
27.128,7.556
27.132,7.524
27.136,7.472
27.14,7.452
27.144,7.488
27.148,7.496
27.152,7.476
27.156,7.44
27.16,7.408
27.164,7.412
27.168,7.416
27.172,7.412
27.176,7.42
27.18,7.432
27.184,7.432
27.188,7.452
27.192,7.436
27.196,7.464
27.2,7.448
27.204,7.428
27.208,7.416
27.212,7.468
27.216,7.46
27.22,7.44
27.224,7.42
27.228,7.464
27.232,7.492
27.236,7.444
27.24,7.448
27.244,7.444
27.248,7.456
27.252,7.452
27.256,7.464
27.26,7.452
27.264,7.44
27.268,7.448
27.272,7.44
27.276,7.46
27.28,7.46
27.284,7.456
27.288,7.436
27.292,7.44
27.296,7.48
27.3,7.472
27.304,7.448
27.308,7.436
27.312,7.436
27.316,7.436
27.32,7.436
27.324,7.448
27.328,7.46
27.332,7.468
27.336,7.44
27.34,7.428
27.344,7.4
27.348,7.372
27.352,7.376
27.356,7.428
27.36,7.456
27.364,7.456
27.368,7.428
27.372,7.416
27.376,7.42
27.38,7.416
27.384,7.424
27.388,7.38
27.392,7.396
27.396,7.416
27.4,7.42
27.404,7.4
27.408,7.432
27.412,7.436
27.416,7.44
27.42,7.424
27.424,7.416
27.428,7.416
27.432,7.436
27.436,7.396
27.44,7.408
27.444,7.412
27.448,7.436
27.452,7.428
27.456,7.388
27.46,7.42
27.464,7.412
27.468,7.408
27.472,7.412
27.476,7.412
27.48,7.4
27.484,7.4
27.488,7.404
27.492,7.404
27.496,7.428
27.5,7.424
27.504,7.396
27.508,7.408
27.512,7.428
27.516,7.416
27.52,7.412
27.524,7.416
27.528,7.416
27.532,7.424
27.536,7.392
27.54,7.42
27.544,7.452
27.548,7.48
27.552,7.5
27.556,7.508
27.56,7.536
27.564,7.568
27.568,7.564
27.572,7.548
27.576,7.592
27.58,7.612
27.584,7.592
27.588,7.584
27.592,7.572
27.596,7.576
27.6,7.568
27.604,7.512
27.608,7.504
27.612,7.544
27.616,7.504
27.62,7.468
27.624,7.46
27.628,7.46
27.632,7.404
27.636,7.316
27.64,7.34
27.644,7.38
27.648,7.364
27.652,7.36
27.656,7.344
27.66,7.344
27.664,7.356
27.668,7.352
27.672,7.332
27.676,7.332
27.68,7.356
27.684,7.356
27.688,7.364
27.692,7.372
27.696,7.36
27.7,7.396
27.704,7.344
27.708,7.292
27.712,7.148
27.716,7.096
27.72,7.268
27.724,7.576
27.728,8.04
27.732,8.656
27.736,9.232
27.74,9.972
27.744,10.512
27.748,10.124
27.752,9.152
27.756,8.352
27.76,7.952
27.764,7.692
27.768,7.52
27.772,7.456
27.776,7.536
27.78,7.588
27.784,7.54
27.788,7.512
27.792,7.508
27.796,7.492
27.8,7.484
27.804,7.456
27.808,7.444
27.812,7.476
27.816,7.46
27.82,7.444
27.824,7.464
27.828,7.46
27.832,7.488
27.836,7.484
27.84,7.468
27.844,7.508
27.848,7.488
27.852,7.48
27.856,7.484
27.86,7.508
27.864,7.508
27.868,7.504
27.872,7.516
27.876,7.512
27.88,7.54
27.884,7.552
27.888,7.524
27.892,7.54
27.896,7.54
27.9,7.576
27.904,7.584
27.908,7.564
27.912,7.608
27.916,7.624
27.92,7.616
27.924,7.652
27.928,7.664
27.932,7.68
27.936,7.684
27.94,7.712
27.944,7.74
27.948,7.768
27.952,7.784
27.956,7.808
27.96,7.836
27.964,7.86
27.968,7.904
27.972,7.896
27.976,7.964
27.98,8.008
27.984,8.044
27.988,8.064
27.992,8.116
27.996,8.132
28,8.168
28.004,8.184
28.008,8.212
28.012,8.284
28.016,8.296
28.02,8.336
28.024,8.352
28.028,8.38
28.032,8.424
28.036,8.372
28.04,8.344
28.044,8.32
28.048,8.276
28.052,8.184
28.056,8.12
28.06,8.048
28.064,7.984
28.068,7.872
28.072,7.82
28.076,7.764
28.08,7.716
28.084,7.664
28.088,7.596
28.092,7.58
28.096,7.556
28.1,7.544
28.104,7.496
28.108,7.488
28.112,7.52
28.116,7.516
28.12,7.476
28.124,7.468
28.128,7.464
28.132,7.476
28.136,7.46
28.14,7.48
28.144,7.488
28.148,7.508
28.152,7.496
28.156,7.464
28.16,7.48
28.164,7.504
28.168,7.496
28.172,7.476
28.176,7.48
28.18,7.504
28.184,7.504
28.188,7.5
28.192,7.476
28.196,7.496
28.2,7.512
28.204,7.5
28.208,7.488
28.212,7.516
28.216,7.496
28.22,7.468
28.224,7.484
28.228,7.516
28.232,7.492
28.236,7.488
28.24,7.448
28.244,7.488
28.248,7.504
28.252,7.492
28.256,7.476
28.26,7.476
28.264,7.496
28.268,7.484
28.272,7.472
28.276,7.456
28.28,7.472
28.284,7.48
28.288,7.472
28.292,7.488
28.296,7.48
28.3,7.468
28.304,7.448
28.308,7.428
28.312,7.448
28.316,7.472
28.32,7.452
28.324,7.44
28.328,7.472
28.332,7.456
28.336,7.452
28.34,7.42
28.344,7.448
28.348,7.436
28.352,7.432
28.356,7.44
28.36,7.464
28.364,7.476
28.368,7.448
28.372,7.444
28.376,7.44
28.38,7.476
28.384,7.428
28.388,7.424
28.392,7.432
28.396,7.448
28.4,7.452
28.404,7.428
28.408,7.44
28.412,7.452
28.416,7.476
28.42,7.428
28.424,7.44
28.428,7.472
28.432,7.448
28.436,7.456
28.44,7.464
28.444,7.48
28.448,7.492
28.452,7.44
28.456,7.464
28.46,7.476
28.464,7.48
28.468,7.468
28.472,7.44
28.476,7.452
28.48,7.444
28.484,7.456
28.488,7.448
28.492,7.448
28.496,7.48
28.5,7.48
28.504,7.46
28.508,7.476
28.512,7.508
28.516,7.5
28.52,7.472
28.524,7.492
28.528,7.536
28.532,7.584
28.536,7.552
28.54,7.576
28.544,7.596
28.548,7.64
28.552,7.644
28.556,7.636
28.56,7.644
28.564,7.656
28.568,7.64
28.572,7.612
28.576,7.624
28.58,7.616
28.584,7.608
28.588,7.584
28.592,7.568
28.596,7.568
28.6,7.532
28.604,7.488
28.608,7.42
28.612,7.424
28.616,7.436
28.62,7.432
28.624,7.404
28.628,7.42
28.632,7.432
28.636,7.412
28.64,7.424
28.644,7.424
28.648,7.436
28.652,7.42
28.656,7.424
28.66,7.428
28.664,7.444
28.668,7.432
28.672,7.42
28.676,7.424
28.68,7.424
28.684,7.312
28.688,7.16
28.692,7.192
28.696,7.484
28.7,7.82
28.704,8.32
28.708,8.908
28.712,9.548
28.716,10.228
28.72,10.492
28.724,9.752
28.728,8.752
28.732,8.14
28.736,7.8
28.74,7.584
28.744,7.488
28.748,7.516
28.752,7.564
28.756,7.628
28.76,7.62
28.764,7.604
28.768,7.6
28.772,7.556
28.776,7.568
28.78,7.58
28.784,7.58
28.788,7.552
28.792,7.568
28.796,7.6
28.8,7.576
28.804,7.552
28.808,7.568
28.812,7.608
28.816,7.612
28.82,7.596
28.824,7.608
28.828,7.636
28.832,7.628
28.836,7.628
28.84,7.62
28.844,7.64
28.848,7.644
28.852,7.64
28.856,7.636
28.86,7.648
28.864,7.668
28.868,7.684
28.872,7.668
28.876,7.7
28.88,7.704
28.884,7.708
28.888,7.708
28.892,7.744
28.896,7.776
28.9,7.796
28.904,7.768
28.908,7.768
28.912,7.812
28.916,7.844
28.92,7.852
28.924,7.86
28.928,7.908
28.932,7.924
28.936,7.948
28.94,7.988
28.944,8.028
28.948,8.064
28.952,8.088
28.956,8.116
28.96,8.168
28.964,8.22
28.968,8.24
28.972,8.22
28.976,8.264
28.98,8.324
28.984,8.356
28.988,8.364
28.992,8.392
28.996,8.46
29,8.504
29.004,8.5
29.008,8.488
29.012,8.492
29.016,8.46
29.02,8.396
29.024,8.372
29.028,8.316
29.032,8.248
29.036,8.128
29.04,8.056
29.044,8.004
29.048,7.94
29.052,7.84
29.056,7.796
29.06,7.74
29.064,7.748
29.068,7.696
29.072,7.66
29.076,7.652
29.08,7.628
29.084,7.628
29.088,7.604
29.092,7.616
29.096,7.616
29.1,7.6
29.104,7.58
29.108,7.604
29.112,7.624
29.116,7.604
29.12,7.584
29.124,7.58
29.128,7.62
29.132,7.62
29.136,7.604
29.14,7.596
29.144,7.6
29.148,7.612
29.152,7.62
29.156,7.612
29.16,7.628
29.164,7.632
29.168,7.616
29.172,7.604
29.176,7.62
29.18,7.636
29.184,7.624
29.188,7.596
29.192,7.612
29.196,7.636
29.2,7.64
29.204,7.624
29.208,7.6
29.212,7.596
29.216,7.628
29.22,7.62
29.224,7.6
29.228,7.612
29.232,7.624
29.236,7.58
29.24,7.6
29.244,7.604
29.248,7.608
29.252,7.596
29.256,7.556
29.26,7.608
29.264,7.624
29.268,7.6
29.272,7.568
29.276,7.572
29.28,7.56
29.284,7.604
29.288,7.576
29.292,7.556
29.296,7.576
29.3,7.584
29.304,7.56
29.308,7.576
29.312,7.58
29.316,7.568
29.32,7.552
29.324,7.552
29.328,7.584
29.332,7.588
29.336,7.564
29.34,7.544
29.344,7.564
29.348,7.576
29.352,7.56
29.356,7.552
29.36,7.556
29.364,7.568
29.368,7.556
29.372,7.54
29.376,7.568
29.38,7.556
29.384,7.556
29.388,7.536
29.392,7.556
29.396,7.58
29.4,7.568
29.404,7.56
29.408,7.556
29.412,7.584
29.416,7.608
29.42,7.544
29.424,7.524
29.428,7.568
29.432,7.576
29.436,7.572
29.44,7.552
29.444,7.56
29.448,7.54
29.452,7.56
29.456,7.584
29.46,7.556
29.464,7.556
29.468,7.552
29.472,7.556
29.476,7.576
29.48,7.564
29.484,7.564
29.488,7.56
29.492,7.564
29.496,7.584
29.5,7.584
29.504,7.572
29.508,7.556
29.512,7.584
29.516,7.616
29.52,7.584
29.524,7.572
29.528,7.64
29.532,7.644
29.536,7.632
29.54,7.664
29.544,7.704
29.548,7.712
29.552,7.74
29.556,7.72
29.56,7.736
29.564,7.76
29.568,7.756
29.572,7.72
29.576,7.704
29.58,7.716
29.584,7.696
29.588,7.684
29.592,7.664
29.596,7.652
29.6,7.64
29.604,7.604
29.608,7.556
29.612,7.536
29.616,7.5
29.62,7.472
29.624,7.484
29.628,7.504
29.632,7.508
29.636,7.48
29.64,7.492
29.644,7.496
29.648,7.52
29.652,7.508
29.656,7.48
29.66,7.5
29.664,7.524
29.668,7.524
29.672,7.516
29.676,7.524
29.68,7.536
29.684,7.46
29.688,7.296
29.692,7.24
29.696,7.408
29.7,7.688
29.704,8.06
29.708,8.64
29.712,9.264
29.716,9.984
29.72,10.588
29.724,10.472
29.728,9.516
29.732,8.656
29.736,8.168
29.74,7.888
29.744,7.712
29.748,7.652
29.752,7.692
29.756,7.72
29.76,7.74
29.764,7.7
29.768,7.688
29.772,7.656
29.776,7.648
29.78,7.648
29.784,7.64
29.788,7.628
29.792,7.616
29.796,7.644
29.8,7.672
29.804,7.64
29.808,7.656
29.812,7.672
29.816,7.68
29.82,7.664
29.824,7.664
29.828,7.68
29.832,7.708
29.836,7.676
29.84,7.684
29.844,7.704
29.848,7.724
29.852,7.708
29.856,7.692
29.86,7.704
29.864,7.732
29.868,7.764
29.872,7.752
29.876,7.72
29.88,7.764
29.884,7.792
29.888,7.772
29.892,7.796
29.896,7.82
29.9,7.816
29.904,7.82
29.908,7.836
29.912,7.88
29.916,7.904
29.92,7.888
29.924,7.9
29.928,7.956
29.932,7.996
29.936,8.004
29.94,8.016
29.944,8.048
29.948,8.116
29.952,8.112
29.956,8.152
29.96,8.176
29.964,8.212
29.968,8.252
29.972,8.288
29.976,8.312
29.98,8.376
29.984,8.38
29.988,8.408
29.992,8.436
29.996,8.472
30,8.536
30.004,8.536
30.008,8.556
30.012,8.58
30.016,8.572
30.02,8.484
30.024,8.44
30.028,8.388
30.032,8.356
30.036,8.256
30.04,8.196
30.044,8.112
30.048,8.044
30.052,7.956
30.056,7.864
30.06,7.836
30.064,7.796
30.068,7.74
30.072,7.668
30.076,7.672
30.08,7.684
30.084,7.668
30.088,7.616
30.092,7.664
30.096,7.688
30.1,7.672
30.104,7.636
30.108,7.588
30.112,7.616
30.116,7.64
30.12,7.632
30.124,7.62
30.128,7.644
30.132,7.644
30.136,7.62
30.14,7.648
30.144,7.66
30.148,7.656
30.152,7.632
30.156,7.628
30.16,7.644
30.164,7.648
30.168,7.688
30.172,7.652
30.176,7.636
30.18,7.648
30.184,7.652
30.188,7.656
30.192,7.636
30.196,7.648
30.2,7.676
30.204,7.636
30.208,7.672
30.212,7.692
30.216,7.68
30.22,7.68
30.224,7.632
30.228,7.664
30.232,7.672
30.236,7.652
30.24,7.648
30.244,7.644
30.248,7.684
30.252,7.66
30.256,7.636
30.26,7.656
30.264,7.664
30.268,7.624
30.272,7.62
30.276,7.612
30.28,7.624
30.284,7.636
30.288,7.584
30.292,7.596
30.296,7.616
30.3,7.652
30.304,7.608
30.308,7.612
30.312,7.596
30.316,7.62
30.32,7.6
30.324,7.616
30.328,7.604
30.332,7.568
30.336,7.58
30.34,7.576
30.344,7.596
30.348,7.624
30.352,7.596
30.356,7.548
30.36,7.604
30.364,7.612
30.368,7.592
30.372,7.576
30.376,7.564
30.38,7.6
30.384,7.608
30.388,7.576
30.392,7.564
30.396,7.588
30.4,7.6
30.404,7.58
30.408,7.584
30.412,7.58
30.416,7.604
30.42,7.58
30.424,7.572
30.428,7.584
30.432,7.596
30.436,7.584
30.44,7.536
30.444,7.564
30.448,7.584
30.452,7.588
30.456,7.576
30.46,7.58
30.464,7.58
30.468,7.588
30.472,7.568
30.476,7.588
30.48,7.612
30.484,7.568
30.488,7.592
30.492,7.584
30.496,7.612
30.5,7.624
30.504,7.632
30.508,7.684
30.512,7.72
30.516,7.744
30.52,7.704
30.524,7.7
30.528,7.764
30.532,7.78
30.536,7.76
30.54,7.772
30.544,7.788
30.548,7.792
30.552,7.8
30.556,7.76
30.56,7.764
30.564,7.768
30.568,7.76
30.572,7.696
30.576,7.668
30.58,7.688
30.584,7.636
30.588,7.564
30.592,7.564
30.596,7.576
30.6,7.588
30.604,7.588
30.608,7.58
30.612,7.612
30.616,7.572
30.62,7.6
30.624,7.568
30.628,7.56
30.632,7.58
30.636,7.6
30.64,7.58
30.644,7.652
30.648,7.648
30.652,7.6
30.656,7.54
30.66,7.452
30.664,7.336
30.668,7.4
30.672,7.624
30.676,7.996
30.68,8.564
30.684,9.112
30.688,9.668
30.692,10.244
30.696,10.48
30.7,9.752
30.704,8.648
30.708,8.08
30.712,7.84
30.716,7.652
30.72,7.528
30.724,7.552
30.728,7.7
30.732,7.808
30.736,7.784
30.74,7.756
30.744,7.74
30.748,7.768
30.752,7.736
30.756,7.72
30.76,7.744
30.764,7.768
30.768,7.736
30.772,7.764
30.776,7.772
30.78,7.772
30.784,7.792
30.788,7.796
30.792,7.8
30.796,7.804
30.8,7.828
30.804,7.764
30.808,7.776
30.812,7.788
30.816,7.844
30.82,7.848
30.824,7.844
30.828,7.872
30.832,7.856
30.836,7.828
30.84,7.868
30.844,7.912
30.848,7.892
30.852,7.884
30.856,7.872
30.86,7.916
30.864,7.952
30.868,7.964
30.872,7.956
30.876,7.948
30.88,7.988
30.884,8.012
30.888,8.004
30.892,8.024
30.896,8.084
30.9,8.12
30.904,8.112
30.908,8.132
30.912,8.18
30.916,8.232
30.92,8.212
30.924,8.22
30.928,8.284
30.932,8.352
30.936,8.376
30.94,8.38
30.944,8.412
30.948,8.456
30.952,8.52
30.956,8.512
30.96,8.568
30.964,8.576
30.968,8.588
30.972,8.58
30.976,8.636
30.98,8.716
30.984,8.712
30.988,8.692
30.992,8.64
30.996,8.612
31,8.576
31.004,8.436
31.008,8.408
31.012,8.372
31.016,8.256
31.02,8.176
31.024,8.132
31.028,8.092
31.032,8.036
31.036,7.96
31.04,7.92
31.044,7.924
31.048,7.928
31.052,7.9
31.056,7.852
31.06,7.828
31.064,7.812
31.068,7.828
31.072,7.824
31.076,7.848
31.08,7.868
31.084,7.824
31.088,7.82
31.092,7.82
31.096,7.856
31.1,7.812
31.104,7.788
31.108,7.804
31.112,7.836
31.116,7.856
31.12,7.832
31.124,7.82
31.128,7.868
31.132,7.856
31.136,7.808
31.14,7.84
31.144,7.828
31.148,7.824
31.152,7.808
31.156,7.812
31.16,7.844
31.164,7.868
31.168,7.852
31.172,7.824
31.176,7.828
31.18,7.828
31.184,7.824
31.188,7.82
31.192,7.82
31.196,7.852
31.2,7.868
31.204,7.824
31.208,7.836
31.212,7.828
31.216,7.828
31.22,7.816
31.224,7.836
31.228,7.848
31.232,7.828
31.236,7.796
31.24,7.812
31.244,7.792
31.248,7.82
31.252,7.836
31.256,7.82
31.26,7.828
31.264,7.8
31.268,7.804
31.272,7.796
31.276,7.8
31.28,7.796
31.284,7.796
31.288,7.788
31.292,7.784
31.296,7.8
31.3,7.836
31.304,7.772
31.308,7.768
31.312,7.784
31.316,7.792
31.32,7.74
31.324,7.772
31.328,7.78
31.332,7.792
31.336,7.808
31.34,7.792
31.344,7.8
31.348,7.78
31.352,7.728
31.356,7.768
31.36,7.788
31.364,7.8
31.368,7.792
31.372,7.752
31.376,7.764
31.38,7.8
31.384,7.832
31.388,7.836
31.392,7.852
31.396,7.924
31.4,7.924
31.404,7.888
31.408,7.888
31.412,7.904
31.416,7.916
31.42,7.936
31.424,7.944
31.428,7.936
31.432,7.912
31.436,7.9
31.44,7.88
31.444,7.888
31.448,7.9
31.452,7.856
31.456,7.828
31.46,7.836
31.464,7.792
31.468,7.736
31.472,7.692
31.476,7.66
31.48,7.68
31.484,7.72
31.488,7.708
31.492,7.704
31.496,7.692
31.5,7.712
31.504,7.684
31.508,7.696
31.512,7.724
31.516,7.704
31.52,7.684
31.524,7.688
31.528,7.744
31.532,7.744
31.536,7.684
31.54,7.592
31.544,7.464
31.548,7.492
31.552,7.712
31.556,8.012
31.56,8.472
31.564,9.08
31.568,9.636
31.572,10.252
31.576,10.584
31.58,10.128
31.584,8.952
31.588,8.18
31.592,7.868
31.596,7.676
31.6,7.584
31.604,7.596
31.608,7.72
31.612,7.8
31.616,7.84
31.62,7.812
31.624,7.808
31.628,7.796
31.632,7.808
31.636,7.812
31.64,7.8
31.644,7.812
31.648,7.792
31.652,7.784
31.656,7.792
31.66,7.796
31.664,7.8
31.668,7.808
31.672,7.796
31.676,7.8
31.68,7.86
31.684,7.844
31.688,7.82
31.692,7.808
31.696,7.84
31.7,7.856
31.704,7.828
31.708,7.816
31.712,7.848
31.716,7.892
31.72,7.852
31.724,7.868
31.728,7.884
31.732,7.908
31.736,7.876
31.74,7.864
31.744,7.896
31.748,7.932
31.752,7.936
31.756,7.944
31.76,7.968
31.764,8.016
31.768,8
31.772,8.016
31.776,8.036
31.78,8.052
31.784,8.076
31.788,8.088
31.792,8.14
31.796,8.152
31.8,8.172
31.804,8.216
31.808,8.26
31.812,8.296
31.816,8.344
31.82,8.348
31.824,8.392
31.828,8.452
31.832,8.476
31.836,8.472
31.84,8.484
31.844,8.54
31.848,8.572
31.852,8.612
31.856,8.604
31.86,8.628
31.864,8.64
31.868,8.648
31.872,8.596
31.876,8.572
31.88,8.492
31.884,8.428
31.888,8.332
31.892,8.244
31.896,8.224
31.9,8.116
31.904,8.036
31.908,7.944
31.912,7.924
31.916,7.9
31.92,7.812
31.924,7.78
31.928,7.808
31.932,7.78
31.936,7.76
31.94,7.744
31.944,7.74
31.948,7.724
31.952,7.696
31.956,7.688
31.96,7.712
31.964,7.708
31.968,7.696
31.972,7.688
31.976,7.716
31.98,7.74
31.984,7.74
31.988,7.7
31.992,7.672
31.996,7.7
32,7.732
32.004,7.724
32.008,7.708
32.012,7.72
32.016,7.716
32.02,7.72
32.024,7.712
32.028,7.728
32.032,7.716
32.036,7.696
32.04,7.704
32.044,7.716
32.048,7.732
32.052,7.72
32.056,7.724
32.06,7.7
32.064,7.732
32.068,7.716
32.072,7.692
32.076,7.7
32.08,7.72
32.084,7.72
32.088,7.688
32.092,7.7
32.096,7.72
32.1,7.72
32.104,7.684
32.108,7.692
32.112,7.724
32.116,7.724
32.12,7.672
32.124,7.668
32.128,7.7
32.132,7.724
32.136,7.68
32.14,7.672
32.144,7.668
32.148,7.692
32.152,7.68
32.156,7.652
32.16,7.664
32.164,7.668
32.168,7.668
32.172,7.648
32.176,7.668
32.18,7.664
32.184,7.676
32.188,7.644
32.192,7.644
32.196,7.644
32.2,7.7
32.204,7.648
32.208,7.652
32.212,7.68
32.216,7.668
32.22,7.648
32.224,7.632
32.228,7.656
32.232,7.664
32.236,7.66
32.24,7.656
32.244,7.664
32.248,7.656
32.252,7.648
32.256,7.616
32.26,7.656
32.264,7.668
32.268,7.652
32.272,7.644
32.276,7.656
32.28,7.7
32.284,7.688
32.288,7.696
32.292,7.728
32.296,7.768
32.3,7.78
32.304,7.78
32.308,7.768
32.312,7.828
32.316,7.884
32.32,7.864
32.324,7.828
32.328,7.832
32.332,7.812
32.336,7.776
32.34,7.764
32.344,7.764
32.348,7.748
32.352,7.728
32.356,7.672
32.36,7.68
32.364,7.644
32.368,7.64
32.372,7.584
32.376,7.58
32.38,7.588
32.384,7.584
32.388,7.576
32.392,7.58
32.396,7.584
32.4,7.592
32.404,7.576
32.408,7.56
32.412,7.604
32.416,7.612
32.42,7.568
32.424,7.58
32.428,7.608
32.432,7.604
32.436,7.52
32.44,7.372
32.444,7.324
32.448,7.52
32.452,7.824
32.456,8.252
32.46,8.836
32.464,9.432
32.468,10.08
32.472,10.564
32.476,10.268
32.48,9.212
32.484,8.34
32.488,7.904
32.492,7.672
32.496,7.568
32.5,7.564
32.504,7.652
32.508,7.716
32.512,7.72
32.516,7.728
32.52,7.7
32.524,7.7
32.528,7.672
32.532,7.688
32.536,7.664
32.54,7.664
32.544,7.68
32.548,7.68
32.552,7.676
32.556,7.672
32.56,7.664
32.564,7.688
32.568,7.712
32.572,7.684
32.576,7.692
32.58,7.7
32.584,7.716
32.588,7.712
32.592,7.7
32.596,7.72
32.6,7.732
32.604,7.708
32.608,7.728
32.612,7.752
32.616,7.76
32.62,7.752
32.624,7.768
32.628,7.784
32.632,7.8
32.636,7.8
32.64,7.792
32.644,7.812
32.648,7.852
32.652,7.836
32.656,7.828
32.66,7.864
32.664,7.892
32.668,7.924
32.672,7.916
32.676,7.948
32.68,7.98
32.684,7.988
32.688,8.012
32.692,8.044
32.696,8.108
32.7,8.136
32.704,8.14
32.708,8.176
32.712,8.232
32.716,8.28
32.72,8.284
32.724,8.316
32.728,8.344
32.732,8.392
32.736,8.428
32.74,8.46
32.744,8.468
32.748,8.524
32.752,8.548
32.756,8.56
32.76,8.564
32.764,8.56
32.768,8.54
32.772,8.48
32.776,8.42
32.78,8.384
32.784,8.3
32.788,8.196
32.792,8.104
32.796,8.064
32.8,7.98
32.804,7.896
32.808,7.856
32.812,7.812
32.816,7.78
32.82,7.732
32.824,7.728
32.828,7.712
32.832,7.684
32.836,7.648
32.84,7.64
32.844,7.648
32.848,7.664
32.852,7.648
32.856,7.636
32.86,7.628
32.864,7.648
32.868,7.664
32.872,7.624
32.876,7.624
32.88,7.628
32.884,7.672
32.888,7.636
32.892,7.632
32.896,7.632
32.9,7.656
32.904,7.64
32.908,7.628
32.912,7.664
32.916,7.668
32.92,7.64
32.924,7.632
32.928,7.668
32.932,7.648
32.936,7.664
32.94,7.644
32.944,7.644
32.948,7.66
32.952,7.672
32.956,7.628
32.96,7.648
32.964,7.66
32.968,7.648
32.972,7.608
32.976,7.64
32.98,7.644
32.984,7.656
32.988,7.628
32.992,7.632
32.996,7.64
33,7.648
33.004,7.628
33.008,7.604
33.012,7.64
33.016,7.628
33.02,7.612
33.024,7.62
33.028,7.6
33.032,7.616
33.036,7.608
33.04,7.608
33.044,7.608
33.048,7.612
33.052,7.6
33.056,7.596
33.06,7.576
33.064,7.624
33.068,7.584
33.072,7.588
33.076,7.588
33.08,7.612
33.084,7.612
33.088,7.576
33.092,7.58
33.096,7.604
33.1,7.604
33.104,7.588
33.108,7.584
33.112,7.584
33.116,7.588
33.12,7.588
33.124,7.576
33.128,7.604
33.132,7.612
33.136,7.592
33.14,7.576
33.144,7.6
33.148,7.588
33.152,7.596
33.156,7.576
33.16,7.588
33.164,7.604
33.168,7.6
33.172,7.572
33.176,7.564
33.18,7.58
33.184,7.6
33.188,7.592
33.192,7.596
33.196,7.592
33.2,7.596
33.204,7.556
33.208,7.588
33.212,7.588
33.216,7.592
33.22,7.596
33.224,7.572
33.228,7.628
33.232,7.716
33.236,7.692
33.24,7.696
33.244,7.712
33.248,7.72
33.252,7.732
33.256,7.772
33.26,7.832
33.264,7.796
33.268,7.764
33.272,7.728
33.276,7.724
33.28,7.7
33.284,7.716
33.288,7.668
33.292,7.632
33.296,7.636
33.3,7.632
33.304,7.568
33.308,7.556
33.312,7.508
33.316,7.524
33.32,7.516
33.324,7.5
33.328,7.508
33.332,7.512
33.336,7.52
33.34,7.492
33.344,7.512
33.348,7.516
33.352,7.516
33.356,7.516
33.36,7.512
33.364,7.516
33.368,7.524
33.372,7.5
33.376,7.504
33.38,7.408
33.384,7.284
33.388,7.252
33.392,7.476
33.396,7.852
33.4,8.328
33.404,8.916
33.408,9.516
33.412,10.26
33.416,10.632
33.42,10.048
33.424,8.984
33.428,8.264
33.432,7.924
33.436,7.716
33.44,7.556
33.444,7.56
33.448,7.676
33.452,7.684
33.456,7.68
33.46,7.664
33.464,7.648
33.468,7.652
33.472,7.636
33.476,7.604
33.48,7.64
33.484,7.644
33.488,7.636
33.492,7.64
33.496,7.652
33.5,7.644
33.504,7.64
33.508,7.64
33.512,7.688
33.516,7.672
33.52,7.656
33.524,7.66
33.528,7.672
33.532,7.704
33.536,7.7
33.54,7.668
33.544,7.696
33.548,7.708
33.552,7.712
33.556,7.7
33.56,7.708
33.564,7.748
33.568,7.756
33.572,7.752
33.576,7.752
33.58,7.796
33.584,7.796
33.588,7.792
33.592,7.784
33.596,7.832
33.6,7.856
33.604,7.84
33.608,7.86
33.612,7.884
33.616,7.912
33.62,7.92
33.624,7.94
33.628,7.964
33.632,7.996
33.636,8.024
33.64,8.056
33.644,8.12
33.648,8.156
33.652,8.164
33.656,8.196
33.66,8.22
33.664,8.268
33.668,8.3
33.672,8.308
33.676,8.34
33.68,8.392
33.684,8.452
33.688,8.448
33.692,8.448
33.696,8.5
33.7,8.52
33.704,8.5
33.708,8.5
33.712,8.488
33.716,8.464
33.72,8.38
33.724,8.296
33.728,8.26
33.732,8.188
33.736,8.108
33.74,8.02
33.744,7.948
33.748,7.916
33.752,7.872
33.756,7.808
33.76,7.732
33.764,7.728
33.768,7.704
33.772,7.664
33.776,7.66
33.78,7.668
33.784,7.648
33.788,7.636
33.792,7.616
33.796,7.652
33.8,7.636
33.804,7.612
33.808,7.6
33.812,7.64
33.816,7.652
33.82,7.644
33.824,7.624
33.828,7.628
33.832,7.676
33.836,7.648
33.84,7.636
33.844,7.608
33.848,7.66
33.852,7.648
33.856,7.648
33.86,7.636
33.864,7.628
33.868,7.668
33.872,7.676
33.876,7.672
33.88,7.676
33.884,7.688
33.888,7.644
33.892,7.62
33.896,7.66
33.9,7.664
33.904,7.672
33.908,7.668
33.912,7.672
33.916,7.66
33.92,7.664
33.924,7.66
33.928,7.66
33.932,7.652
33.936,7.648
33.94,7.652
33.944,7.648
33.948,7.676
33.952,7.648
33.956,7.628
33.96,7.652
33.964,7.684
33.968,7.68
33.972,7.624
33.976,7.608
33.98,7.636
33.984,7.648
33.988,7.656
33.992,7.652
33.996,7.628
34,7.652
34.004,7.64
34.008,7.668
34.012,7.66
34.016,7.636
34.02,7.632
34.024,7.608
34.028,7.628
34.032,7.668
34.036,7.64
34.04,7.636
34.044,7.612
34.048,7.656
34.052,7.656
34.056,7.616
34.06,7.628
34.064,7.648
34.068,7.668
34.072,7.62
34.076,7.64
34.08,7.644
34.084,7.652
34.088,7.628
34.092,7.628
34.096,7.66
34.1,7.676
34.104,7.644
34.108,7.632
34.112,7.652
34.116,7.656
34.12,7.656
34.124,7.632
34.128,7.656
34.132,7.66
34.136,7.668
34.14,7.632
34.144,7.632
34.148,7.644
34.152,7.648
34.156,7.632
34.16,7.62
34.164,7.648
34.168,7.68
34.172,7.64
34.176,7.66
34.18,7.688
34.184,7.684
34.188,7.652
34.192,7.652
34.196,7.68
34.2,7.7
34.204,7.716
34.208,7.74
34.212,7.784
34.216,7.82
34.22,7.816
34.224,7.784
34.228,7.824
34.232,7.888
34.236,7.916
34.24,7.908
34.244,7.84
34.248,7.864
34.252,7.86
34.256,7.812
34.26,7.804
34.264,7.812
34.268,7.8
34.272,7.768
34.276,7.732
34.28,7.724
34.284,7.688
34.288,7.644
34.292,7.624
34.296,7.636
34.3,7.676
34.304,7.66
34.308,7.632
34.312,7.66
34.316,7.656
34.32,7.656
34.324,7.64
34.328,7.664
34.332,7.66
34.336,7.66
34.34,7.648
34.344,7.66
34.348,7.66
34.352,7.656
34.356,7.524
34.36,7.376
34.364,7.452
34.368,7.724
34.372,8.052
34.376,8.568
34.38,9.18
34.384,9.72
34.388,10.368
34.392,10.596
34.396,9.888
34.4,8.868
34.404,8.208
34.408,7.904
34.412,7.688
34.416,7.636
34.42,7.644
34.424,7.752
34.428,7.812
34.432,7.82
34.436,7.816
34.44,7.796
34.444,7.792
34.448,7.792
34.452,7.78
34.456,7.764
34.46,7.772
34.464,7.768
34.468,7.792
34.472,7.78
34.476,7.776
34.48,7.8
34.484,7.828
34.488,7.804
34.492,7.78
34.496,7.796
34.5,7.82
34.504,7.816
34.508,7.82
34.512,7.848
34.516,7.864
34.52,7.848
34.524,7.852
34.528,7.856
34.532,7.892
34.536,7.876
34.54,7.852
34.544,7.884
34.548,7.912
34.552,7.928
34.556,7.904
34.56,7.892
34.564,7.936
34.568,7.988
34.572,7.964
34.576,7.96
34.58,7.988
34.584,8.036
34.588,8.036
34.592,8.044
34.596,8.084
34.6,8.132
34.604,8.128
34.608,8.14
34.612,8.188
34.616,8.228
34.62,8.256
34.624,8.276
34.628,8.288
34.632,8.364
34.636,8.412
34.64,8.396
34.644,8.424
34.648,8.5
34.652,8.516
34.656,8.548
34.66,8.564
34.664,8.588
34.668,8.624
34.672,8.624
34.676,8.652
34.68,8.676
34.684,8.684
34.688,8.648
34.692,8.588
34.696,8.548
34.7,8.512
34.704,8.412
34.708,8.32
34.712,8.26
34.716,8.22
34.72,8.124
34.724,8.048
34.728,7.988
34.732,7.972
34.736,7.92
34.74,7.888
34.744,7.86
34.748,7.836
34.752,7.856
34.756,7.82
34.76,7.8
34.764,7.832
34.768,7.828
34.772,7.78
34.776,7.764
34.78,7.812
34.784,7.84
34.788,7.804
34.792,7.772
34.796,7.796
34.8,7.808
34.804,7.804
34.808,7.804
34.812,7.784
34.816,7.812
34.82,7.816
34.824,7.816
34.828,7.8
34.832,7.832
34.836,7.816
34.84,7.796
34.844,7.78
34.848,7.832
34.852,7.856
34.856,7.812
34.86,7.764
34.864,7.808
34.868,7.828
34.872,7.82
34.876,7.804
34.88,7.828
34.884,7.844
34.888,7.82
34.892,7.792
34.896,7.816
34.9,7.812
34.904,7.808
34.908,7.78
34.912,7.792
34.916,7.82
34.92,7.804
34.924,7.78
34.928,7.756
34.932,7.8
34.936,7.796
34.94,7.772
34.944,7.76
34.948,7.78
34.952,7.784
34.956,7.756
34.96,7.744
34.964,7.776
34.968,7.796
34.972,7.748
34.976,7.736
34.98,7.768
34.984,7.78
34.988,7.768
34.992,7.712
34.996,7.748
35,7.768
35.004,7.756
35.008,7.732
35.012,7.748
35.016,7.776
35.02,7.752
35.024,7.732
35.028,7.724
35.032,7.756
35.036,7.748
35.04,7.74
35.044,7.736
35.048,7.772
35.052,7.752
35.056,7.732
35.06,7.736
35.064,7.756
35.068,7.76
35.072,7.724
35.076,7.732
35.08,7.74
35.084,7.776
35.088,7.756
35.092,7.72
35.096,7.736
35.1,7.76
35.104,7.732
35.108,7.728
35.112,7.74
35.116,7.78
35.12,7.748
35.124,7.716
35.128,7.744
35.132,7.772
35.136,7.744
35.14,7.724
35.144,7.708
35.148,7.736
35.152,7.776
35.156,7.74
35.16,7.72
35.164,7.732
35.168,7.776
35.172,7.748
35.176,7.72
35.18,7.74
35.184,7.792
35.188,7.728
35.192,7.736
35.196,7.772
35.2,7.776
35.204,7.748
35.208,7.736
35.212,7.768
35.216,7.8
35.22,7.812
35.224,7.788
35.228,7.82
35.232,7.872
35.236,7.884
35.24,7.856
35.244,7.848
35.248,7.904
35.252,7.924
35.256,7.888
35.26,7.892
35.264,7.912
35.268,7.924
35.272,7.888
35.276,7.824
35.28,7.86
35.284,7.908
35.288,7.852
35.292,7.824
35.296,7.788
35.3,7.832
35.304,7.78
35.308,7.692
35.312,7.66
35.316,7.704
35.32,7.704
35.324,7.684
35.328,7.652
35.332,7.7
35.336,7.684
35.34,7.644
35.344,7.66
35.348,7.696
35.352,7.7
35.356,7.668
35.36,7.648
35.364,7.68
35.368,7.72
35.372,7.68
35.376,7.656
35.38,7.588
35.384,7.496
35.388,7.4
35.392,7.556
35.396,7.892
35.4,8.324
35.404,8.916
35.408,9.488
35.412,10.244
35.416,10.816
35.42,10.5
35.424,9.412
35.428,8.548
35.432,8.152
35.436,7.904
35.44,7.724
35.444,7.688
35.448,7.808
35.452,7.904
35.456,7.808
35.46,7.76
35.464,7.784
35.468,7.796
35.472,7.768
35.476,7.744
35.48,7.752
35.484,7.792
35.488,7.76
35.492,7.752
35.496,7.772
35.5,7.792
35.504,7.796
35.508,7.748
35.512,7.776
35.516,7.812
35.52,7.808
35.524,7.78
35.528,7.788
35.532,7.824
35.536,7.848
35.54,7.796
35.544,7.808
35.548,7.864
35.552,7.864
35.556,7.832
35.56,7.832
35.564,7.876
35.568,7.916
35.572,7.872
35.576,7.836
35.58,7.884
35.584,7.956
35.588,7.936
35.592,7.896
35.596,7.928
35.6,7.992
35.604,7.98
35.608,7.976
35.612,7.972
35.616,8.064
35.62,8.068
35.624,8.052
35.628,8.092
35.632,8.144
35.636,8.192
35.64,8.156
35.644,8.192
35.648,8.264
35.652,8.3
35.656,8.308
35.66,8.292
35.664,8.352
35.668,8.428
35.672,8.428
35.676,8.424
35.68,8.512
35.684,8.584
35.688,8.576
35.692,8.596
35.696,8.64
35.7,8.692
35.704,8.664
35.708,8.66
35.712,8.652
35.716,8.672
35.72,8.584
35.724,8.492
35.728,8.42
35.732,8.412
35.736,8.34
35.74,8.196
35.744,8.088
35.748,8.064
35.752,8.048
35.756,7.944
35.76,7.88
35.764,7.884
35.768,7.896
35.772,7.844
35.776,7.78
35.78,7.776
35.784,7.812
35.788,7.78
35.792,7.736
35.796,7.748
35.8,7.788
35.804,7.756
35.808,7.72
35.812,7.728
35.816,7.776
35.82,7.78
35.824,7.752
35.828,7.72
35.832,7.744
35.836,7.756
35.84,7.728
35.844,7.712
35.848,7.772
35.852,7.792
35.856,7.752
35.86,7.7
35.864,7.744
35.868,7.784
35.872,7.732
35.876,7.664
35.88,7.704
35.884,7.772
35.888,7.724
35.892,7.68
35.896,7.72
35.9,7.776
35.904,7.748
35.908,7.704
35.912,7.74
35.916,7.772
35.92,7.72
35.924,7.7
35.928,7.696
35.932,7.748
35.936,7.768
35.94,7.692
35.944,7.664
35.948,7.72
35.952,7.744
35.956,7.716
35.96,7.664
35.964,7.728
35.968,7.752
35.972,7.712
35.976,7.656
35.98,7.672
35.984,7.74
35.988,7.704
35.992,7.668
35.996,7.68
36,7.704
36.004,7.708
36.008,7.652
36.012,7.676
36.016,7.712
36.02,7.708
36.024,7.664
36.028,7.648
36.032,7.704
36.036,7.716
36.04,7.676
36.044,7.644
36.048,7.664
36.052,7.724
36.056,7.68
36.06,7.66
36.064,7.692
36.068,7.704
36.072,7.676
36.076,7.64
36.08,7.672
36.084,7.732
36.088,7.692
36.092,7.616
36.096,7.668
36.1,7.728
36.104,7.688
36.108,7.64
36.112,7.652
36.116,7.712
36.12,7.724
36.124,7.668
36.128,7.652
36.132,7.72
36.136,7.728
36.14,7.668
36.144,7.648
36.148,7.692
36.152,7.68
36.156,7.672
36.16,7.596
36.164,7.672
36.168,7.7
36.172,7.68
36.176,7.624
36.18,7.668
36.184,7.708
36.188,7.708
36.192,7.66
36.196,7.724
36.2,7.796
36.204,7.784
36.208,7.756
36.212,7.788
36.216,7.84
36.22,7.828
36.224,7.808
36.228,7.816
36.232,7.868
36.236,7.86
36.24,7.792
36.244,7.752
36.248,7.804
36.252,7.852
36.256,7.768
36.26,7.708
36.264,7.724
36.268,7.76
36.272,7.656
36.276,7.572
36.28,7.592
36.284,7.672
36.288,7.616
36.292,7.568
36.296,7.588
36.3,7.64
36.304,7.636
36.308,7.568
36.312,7.576
36.316,7.656
36.32,7.62
36.324,7.596
36.328,7.568
36.332,7.636
36.336,7.648
36.34,7.616
36.344,7.552
36.348,7.492
36.352,7.388
36.356,7.396
36.36,7.604
36.364,8
36.368,8.54
36.372,9.068
36.376,9.576
36.38,10.252
36.384,10.548
36.388,9.828
36.392,8.704
36.396,8.092
36.4,7.892
36.404,7.668
36.408,7.512
36.412,7.56
36.416,7.736
36.42,7.808
36.424,7.744
36.428,7.744
36.432,7.764
36.436,7.76
36.44,7.728
36.444,7.716
36.448,7.748
36.452,7.788
36.456,7.728
36.46,7.696
36.464,7.756
36.468,7.808
36.472,7.76
36.476,7.74
36.48,7.752
36.484,7.836
36.488,7.8
36.492,7.768
36.496,7.768
36.5,7.848
36.504,7.828
36.508,7.784
36.512,7.808
36.516,7.86
36.52,7.848
36.524,7.804
36.528,7.816
36.532,7.896
36.536,7.916
36.54,7.86
36.544,7.828
36.548,7.892
36.552,7.964
36.556,7.928
36.56,7.884
36.564,7.932
36.568,8.016
36.572,7.98
36.576,7.94
36.58,8.004
36.584,8.096
36.588,8.064
36.592,8.036
36.596,8.096
36.6,8.18
36.604,8.176
36.608,8.152
36.612,8.168
36.616,8.28
36.62,8.316
36.624,8.268
36.628,8.312
36.632,8.408
36.636,8.444
36.64,8.456
36.644,8.444
36.648,8.516
36.652,8.584
36.656,8.528
36.66,8.528
36.664,8.604
36.668,8.688
36.672,8.616
36.676,8.568
36.68,8.608
36.684,8.624
36.688,8.52
36.692,8.396
36.696,8.348
36.7,8.36
36.704,8.252
36.708,8.1
36.712,8.032
36.716,8.072
36.72,8
36.724,7.888
36.728,7.836
36.732,7.888
36.736,7.852
36.74,7.792
36.744,7.74
36.748,7.8
36.752,7.836
36.756,7.74
36.76,7.688
36.764,7.764
36.768,7.832
36.772,7.772
36.776,7.712
36.78,7.74
36.784,7.804
36.788,7.78
36.792,7.716
36.796,7.728
36.8,7.78
36.804,7.752
36.808,7.732
36.812,7.764
36.816,7.8
36.82,7.804
36.824,7.708
36.828,7.716
36.832,7.78
36.836,7.828
36.84,7.752
36.844,7.728
36.848,7.8
36.852,7.84
36.856,7.78
36.86,7.716
36.864,7.764
36.868,7.836
36.872,7.764
36.876,7.692
36.88,7.736
36.884,7.808
36.888,7.78
36.892,7.672
36.896,7.724
36.9,7.804
36.904,7.772
36.908,7.712
36.912,7.712
36.916,7.78
36.92,7.804
36.924,7.712
36.928,7.676
36.932,7.756
36.936,7.776
36.94,7.724
36.944,7.696
36.948,7.736
36.952,7.768
36.956,7.672
36.96,7.644
36.964,7.704
36.968,7.76
36.972,7.716
36.976,7.644
36.98,7.696
36.984,7.796
36.988,7.736
36.992,7.656
36.996,7.668
37,7.752
37.004,7.728
37.008,7.672
37.012,7.664
37.016,7.736
37.02,7.752
37.024,7.668
37.028,7.66
37.032,7.74
37.036,7.748
37.04,7.672
37.044,7.628
37.048,7.72
37.052,7.764
37.056,7.684
37.06,7.612
37.064,7.68
37.068,7.78
37.072,7.704
37.076,7.644
37.08,7.652
37.084,7.732
37.088,7.712
37.092,7.636
37.096,7.664
37.1,7.732
37.104,7.712
37.108,7.64
37.112,7.66
37.116,7.74
37.12,7.748
37.124,7.664
37.128,7.644
37.132,7.728
37.136,7.772
37.14,7.676
37.144,7.644
37.148,7.736
37.152,7.78
37.156,7.756
37.16,7.708
37.164,7.768
37.168,7.86
37.172,7.808
37.176,7.756
37.18,7.84
37.184,7.908
37.188,7.86
37.192,7.796
37.196,7.82
37.2,7.896
37.204,7.884
37.208,7.78
37.212,7.76
37.216,7.856
37.22,7.856
37.224,7.756
37.228,7.7
37.232,7.748
37.236,7.74
37.24,7.616
37.244,7.58
37.248,7.624
37.252,7.7
37.256,7.596
37.26,7.548
37.264,7.628
37.268,7.7
37.272,7.612
37.276,7.552
37.28,7.58
37.284,7.712
37.288,7.664
37.292,7.576
37.296,7.568
37.3,7.684
37.304,7.692
37.308,7.584
37.312,7.528
37.316,7.476
37.32,7.396
37.324,7.488
37.328,7.772
37.332,8.232
37.336,8.868
37.34,9.384
37.344,10.04
37.348,10.692
37.352,10.568
37.356,9.46
37.36,8.46
37.364,8.06
37.368,7.88
37.372,7.68
37.376,7.604
37.38,7.712
37.384,7.844
37.388,7.804
37.392,7.692
37.396,7.736
37.4,7.8
37.404,7.78
37.408,7.676
37.412,7.692
37.416,7.804
37.42,7.8
37.424,7.72
37.428,7.696
37.432,7.772
37.436,7.8
37.44,7.724
37.444,7.688
37.448,7.78
37.452,7.848
37.456,7.784
37.46,7.752
37.464,7.808
37.468,7.872
37.472,7.824
37.476,7.76
37.48,7.8
37.484,7.892
37.488,7.872
37.492,7.768
37.496,7.796
37.5,7.924
37.504,7.888
37.508,7.824
37.512,7.852
37.516,7.932
37.52,7.932
37.524,7.86
37.528,7.864
37.532,7.936
37.536,7.98
37.54,7.936
37.544,7.928
37.548,8.016
37.552,8.096
37.556,8.048
37.56,7.988
37.564,8.076
37.568,8.188
37.572,8.152
37.576,8.096
37.58,8.176
37.584,8.296
37.588,8.308
37.592,8.24
37.596,8.316
37.6,8.424
37.604,8.42
37.608,8.376
37.612,8.436
37.616,8.524
37.62,8.584
37.624,8.528
37.628,8.528
37.632,8.644
37.636,8.664
37.64,8.604
37.644,8.536
37.648,8.58
37.652,8.592
37.656,8.48
37.66,8.344
37.664,8.312
37.668,8.324
37.672,8.18
37.676,8.064
37.68,8.028
37.684,8.032
37.688,7.92
37.692,7.816
37.696,7.828
37.7,7.888
37.704,7.832
37.708,7.744
37.712,7.712
37.716,7.812
37.72,7.796
37.724,7.704
37.728,7.692
37.732,7.768
37.736,7.804
37.74,7.744
37.744,7.68
37.748,7.744
37.752,7.8
37.756,7.744
37.76,7.68
37.764,7.728
37.768,7.82
37.772,7.748
37.776,7.688
37.78,7.752
37.784,7.832
37.788,7.76
37.792,7.716
37.796,7.72
37.8,7.804
37.804,7.8
37.808,7.728
37.812,7.724
37.816,7.792
37.82,7.776
37.824,7.748
37.828,7.716
37.832,7.8
37.836,7.816
37.84,7.708
37.844,7.676
37.848,7.76
37.852,7.824
37.856,7.744
37.86,7.668
37.864,7.74
37.868,7.816
37.872,7.76
37.876,7.676
37.88,7.704
37.884,7.788
37.888,7.768
37.892,7.68
37.896,7.692
37.9,7.78
37.904,7.744
37.908,7.664
37.912,7.676
37.916,7.764
37.92,7.748
37.924,7.664
37.928,7.656
37.932,7.732
37.936,7.768
37.94,7.676
37.944,7.624
37.948,7.696
37.952,7.768
37.956,7.708
37.96,7.644
37.964,7.692
37.968,7.756
37.972,7.684
37.976,7.652
37.98,7.68
37.984,7.78
37.988,7.7
37.992,7.62
37.996,7.668
38,7.756
38.004,7.724
38.008,7.616
38.012,7.64
38.016,7.728
38.02,7.74
38.024,7.676
38.028,7.628
38.032,7.728
38.036,7.768
38.04,7.664
38.044,7.636
38.048,7.7
38.052,7.76
38.056,7.692
38.06,7.64
38.064,7.676
38.068,7.764
38.072,7.672
38.076,7.624
38.08,7.676
38.084,7.748
38.088,7.72
38.092,7.62
38.096,7.656
38.1,7.748
38.104,7.732
38.108,7.64
38.112,7.636
38.116,7.736
38.12,7.728
38.124,7.664
38.128,7.636
38.132,7.708
38.136,7.756
38.14,7.672
38.144,7.636
38.148,7.712
38.152,7.764
38.156,7.7
38.16,7.652
38.164,7.68
38.168,7.776
38.172,7.72
38.176,7.636
38.18,7.676
38.184,7.772
38.188,7.784
38.192,7.732
38.196,7.756
38.2,7.864
38.204,7.852
38.208,7.78
38.212,7.832
38.216,7.888
38.22,7.892
38.224,7.836
38.228,7.78
38.232,7.884
38.236,7.936
38.24,7.808
38.244,7.748
38.248,7.828
38.252,7.876
38.256,7.772
38.26,7.684
38.264,7.732
38.268,7.776
38.272,7.664
38.276,7.584
38.28,7.62
38.284,7.716
38.288,7.64
38.292,7.58
38.296,7.604
38.3,7.692
38.304,7.676
38.308,7.596
38.312,7.592
38.316,7.688
38.32,7.704
38.324,7.624
38.328,7.584
38.332,7.688
38.336,7.716
38.34,7.612
38.344,7.472
38.348,7.404
38.352,7.5
38.356,7.656
38.36,7.908
38.364,8.488
38.368,9.16
38.372,9.704
38.376,10.352
38.38,10.72
38.384,10.148
38.388,9.028
38.392,8.24
38.396,7.928
38.4,7.848
38.404,7.696
38.408,7.648
38.412,7.732
38.416,7.852
38.42,7.848
38.424,7.732
38.428,7.688
38.432,7.8
38.436,7.82
38.44,7.712
38.444,7.656
38.448,7.748
38.452,7.816
38.456,7.732
38.46,7.652
38.464,7.724
38.468,7.824
38.472,7.788
38.476,7.7
38.48,7.732
38.484,7.832
38.488,7.804
38.492,7.724
38.496,7.748
38.5,7.868
38.504,7.82
38.508,7.76
38.512,7.768
38.516,7.88
38.52,7.88
38.524,7.776
38.528,7.764
38.532,7.876
38.536,7.932
38.54,7.852
38.544,7.808
38.548,7.904
38.552,7.976
38.556,7.904
38.56,7.836
38.564,7.904
38.568,8.016
38.572,7.964
38.576,7.908
38.58,7.964
38.584,8.104
38.588,8.08
38.592,7.992
38.596,8.068
38.6,8.216
38.604,8.228
38.608,8.132
38.612,8.164
38.616,8.308
38.62,8.352
38.624,8.28
38.628,8.284
38.632,8.42
38.636,8.484
38.64,8.432
38.644,8.412
38.648,8.532
38.652,8.596
38.656,8.552
38.66,8.508
38.664,8.608
38.668,8.736
38.672,8.676
38.676,8.532
38.68,8.564
38.684,8.592
38.688,8.5
38.692,8.328
38.696,8.276
38.7,8.316
38.704,8.196
38.708,8.036
38.712,7.972
38.716,8.012
38.72,7.968
38.724,7.816
38.728,7.76
38.732,7.868
38.736,7.84
38.74,7.736
38.744,7.66
38.748,7.716
38.752,7.796
38.756,7.728
38.76,7.624
38.764,7.688
38.768,7.772
38.772,7.72
38.776,7.652
38.78,7.692
38.784,7.784
38.788,7.72
38.792,7.632
38.796,7.648
38.8,7.784
38.804,7.724
38.808,7.648
38.812,7.668
38.816,7.772
38.82,7.78
38.824,7.704
38.828,7.644
38.832,7.756
38.836,7.804
38.84,7.708
38.844,7.636
38.848,7.708
38.852,7.772
38.856,7.696
38.86,7.628
38.864,7.72
38.868,7.812
38.872,7.748
38.876,7.652
38.88,7.712
38.884,7.82
38.888,7.736
38.892,7.616
38.896,7.652
38.9,7.748
38.904,7.736
38.908,7.64
38.912,7.648
38.916,7.756
38.92,7.764
38.924,7.66
38.928,7.6
38.932,7.708
38.936,7.724
38.94,7.672
38.944,7.648
38.948,7.72
38.952,7.788
38.956,7.688
38.96,7.552
38.964,7.668
38.968,7.78
38.972,7.716
38.976,7.604
38.98,7.616
38.984,7.7
38.988,7.68
38.992,7.568
38.996,7.608
39,7.732
39.004,7.72
39.008,7.616
39.012,7.64
39.016,7.724
39.02,7.752
39.024,7.632
39.028,7.576
39.032,7.7
39.036,7.716
39.04,7.644
39.044,7.592
39.048,7.68
39.052,7.732
39.056,7.664
39.06,7.576
39.064,7.648
39.068,7.732
39.072,7.668
39.076,7.584
39.08,7.64
39.084,7.72
39.088,7.7
39.092,7.62
39.096,7.636
39.1,7.744
39.104,7.708
39.108,7.604
39.112,7.612
39.116,7.724
39.12,7.728
39.124,7.652
