0,7.976
0.004,8.228
0.008,8.292
0.012,8.052
0.016,7.984
0.02,8.244
0.024,8.352
0.028,7.984
0.032,7.848
0.036,8.104
0.04,8.312
0.044,8.088
0.048,7.908
0.052,8.08
0.056,8.348
0.06,8.196
0.064,7.972
0.068,8.072
0.072,8.316
0.076,8.24
0.08,7.984
0.084,8.028
0.088,8.312
0.092,8.288
0.096,8.028
0.1,8.012
0.104,8.292
0.108,8.348
0.112,8.052
0.116,7.972
0.12,8.228
0.124,8.384
0.128,8.136
0.132,7.968
0.136,8.132
0.14,8.368
0.144,8.148
0.148,7.956
0.152,8.136
0.156,8.372
0.16,8.216
0.164,8.008
0.168,8.108
0.172,8.384
0.176,8.236
0.18,7.944
0.184,7.996
0.188,8.252
0.192,8.26
0.196,7.988
0.2,7.944
0.204,8.204
0.208,8.308
0.212,8.04
0.216,7.944
0.22,8.164
0.224,8.292
0.228,8.048
0.232,7.924
0.236,8.112
0.24,8.324
0.244,8.112
0.248,7.92
0.252,8.068
0.256,8.32
0.26,8.156
0.264,7.944
0.268,8.032
0.272,8.28
0.276,8.192
0.28,7.94
0.284,7.976
0.288,8.248
0.292,8.232
0.296,7.968
0.3,7.948
0.304,8.22
0.308,8.284
0.312,8.008
0.316,7.944
0.32,8.164
0.324,8.32
0.328,8.064
0.332,7.912
0.336,8.108
0.34,8.316
0.344,8.084
0.348,7.904
0.352,8.04
0.356,8.296
0.36,8.164
0.364,7.936
0.368,8.052
0.372,8.336
0.376,8.256
0.38,8.044
0.384,8.08
0.388,8.344
0.392,8.352
0.396,8.136
0.4,8.104
0.404,8.404
0.408,8.488
0.412,8.184
0.416,8.056
0.42,8.244
0.424,8.388
0.428,8.108
0.432,7.996
0.436,8.192
0.44,8.36
0.444,8.124
0.448,7.924
0.452,8.064
0.456,8.252
0.46,8.092
0.464,7.872
0.468,8.008
0.472,8.208
0.476,8
0.48,7.692
0.484,7.892
0.488,8.36
0.492,8.68
0.496,9.036
0.5,9.624
0.504,10
0.508,9.816
0.512,9.284
0.516,8.672
0.52,8.28
0.524,8.072
0.528,7.824
0.532,7.764
0.536,8.004
0.54,8.284
0.544,8.128
0.548,7.932
0.552,8.056
0.556,8.304
0.56,8.116
0.564,7.896
0.568,7.956
0.572,8.208
0.576,8.152
0.58,7.92
0.584,7.948
0.588,8.224
0.592,8.2
0.596,7.928
0.6,7.912
0.604,8.192
0.608,8.24
0.612,7.984
0.616,7.912
0.62,8.116
0.624,8.288
0.628,8.028
0.632,7.936
0.636,8.108
0.64,8.328
0.644,8.092
0.648,7.912
0.652,8.092
0.656,8.324
0.66,8.188
0.664,7.98
0.668,8.096
0.672,8.352
0.676,8.304
0.68,8.072
0.684,8.116
0.688,8.368
0.692,8.384
0.696,8.156
0.7,8.14
0.704,8.38
0.708,8.468
0.712,8.228
0.716,8.168
0.72,8.44
0.724,8.604
0.728,8.344
0.732,8.236
0.736,8.444
0.74,8.688
0.744,8.504
0.748,8.344
0.752,8.544
0.756,8.812
0.76,8.696
0.764,8.496
0.768,8.636
0.772,8.92
0.776,8.828
0.78,8.616
0.784,8.668
0.788,8.964
0.792,8.976
0.796,8.696
0.8,8.648
0.804,8.892
0.808,8.956
0.812,8.668
0.816,8.52
0.82,8.704
0.824,8.776
0.828,8.476
0.832,8.312
0.836,8.44
0.84,8.596
0.844,8.344
0.848,8.116
0.852,8.224
0.856,8.432
0.86,8.248
0.864,8.004
0.868,8.116
0.872,8.364
0.876,8.264
0.88,7.976
0.884,7.996
0.888,8.244
0.892,8.268
0.896,8.008
0.9,7.964
0.904,8.24
0.908,8.296
0.912,8.008
0.916,7.932
0.92,8.172
0.924,8.332
0.928,8.064
0.932,7.924
0.936,8.14
0.94,8.352
0.944,8.148
0.948,7.952
0.952,8.092
0.956,8.356
0.96,8.236
0.964,7.996
0.968,8.06
0.972,8.344
0.976,8.272
0.98,8.032
0.984,8.072
0.988,8.308
0.992,8.316
0.996,8.036
1,8.016
1.004,8.276
1.008,8.348
1.012,8.092
1.016,7.98
1.02,8.224
1.024,8.368
1.028,8.124
1.032,7.956
1.036,8.164
1.04,8.36
1.044,8.148
1.048,7.964
1.052,8.072
1.056,8.328
1.06,8.192
1.064,7.956
1.068,8.06
1.072,8.32
1.076,8.236
1.08,8.004
1.084,8.024
1.088,8.264
1.092,8.256
1.096,7.976
1.1,7.98
1.104,8.244
1.108,8.324
1.112,8.044
1.116,7.952
1.12,8.152
1.124,8.304
1.128,8.048
1.132,7.924
1.136,8.128
1.14,8.316
1.144,8.12
1.148,7.928
1.152,8.08
1.156,8.296
1.16,8.144
1.164,7.952
1.168,8.012
1.172,8.26
1.176,8.188
1.18,7.964
1.184,7.984
1.188,8.264
1.192,8.26
1.196,8.004
1.2,7.96
1.204,8.204
1.208,8.28
1.212,8.008
1.216,7.932
1.22,8.172
1.224,8.34
1.228,8.104
1.232,7.932
1.236,8.112
1.24,8.296
1.244,8.12
1.248,7.928
1.252,8.072
1.256,8.296
1.26,8.18
1.264,7.98
1.268,8.02
1.272,8.304
1.276,8.252
1.28,8.032
1.284,8.108
1.288,8.38
1.292,8.368
1.296,8.096
1.3,8.084
1.304,8.404
1.308,8.488
1.312,8.244
1.316,8.128
1.32,8.328
1.324,8.42
1.328,8.152
1.332,8.052
1.336,8.18
1.34,8.392
1.344,8.192
1.348,7.956
1.352,8.064
1.356,8.284
1.36,8.116
1.364,7.888
1.368,7.988
1.372,8.268
1.376,8.168
1.38,7.86
1.384,7.756
1.388,8.056
1.392,8.184
1.396,8.108
1.4,8.432
1.404,9.396
1.408,9.984
1.412,9.676
1.416,9.316
1.42,9.196
1.424,8.768
1.428,8.012
1.432,7.72
1.436,7.896
1.44,8.216
1.444,8.088
1.448,7.952
1.452,8.104
1.456,8.324
1.46,8.152
1.464,7.912
1.468,7.976
1.472,8.252
1.476,8.196
1.48,7.932
1.484,7.948
1.488,8.192
1.492,8.208
1.496,7.968
1.5,7.948
1.504,8.192
1.508,8.244
1.512,8.024
1.516,7.916
1.52,8.14
1.524,8.284
1.528,8.096
1.532,7.94
1.536,8.124
1.54,8.344
1.544,8.14
1.548,7.928
1.552,8.072
1.556,8.336
1.56,8.2
1.564,7.984
1.568,8.064
1.572,8.348
1.576,8.308
1.58,8.056
1.584,8.092
1.588,8.368
1.592,8.348
1.596,8.108
1.6,8.068
1.604,8.356
1.608,8.452
1.612,8.204
1.616,8.124
1.62,8.348
1.624,8.524
1.628,8.308
1.632,8.188
1.636,8.404
1.64,8.628
1.644,8.46
1.648,8.296
1.652,8.44
1.656,8.724
1.66,8.62
1.664,8.44
1.668,8.564
1.672,8.848
1.676,8.768
1.68,8.564
1.684,8.624
1.688,8.908
1.692,8.912
1.696,8.66
1.7,8.632
1.704,8.896
1.708,8.992
1.712,8.708
1.716,8.588
1.72,8.784
1.724,8.872
1.728,8.608
1.732,8.404
1.736,8.524
1.74,8.656
1.744,8.416
1.748,8.188
1.752,8.324
1.756,8.516
1.76,8.348
1.764,8.096
1.768,8.132
1.772,8.356
1.776,8.284
1.78,8.012
1.784,8.048
1.788,8.268
1.792,8.28
1.796,8.04
1.8,7.976
1.804,8.192
1.808,8.264
1.812,7.992
1.816,7.896
1.82,8.168
1.824,8.3
1.828,8.048
1.832,7.924
1.836,8.116
1.84,8.276
1.844,8.116
1.848,7.948
1.852,8.104
1.856,8.356
1.86,8.216
1.864,7.96
1.868,8.036
1.872,8.312
1.876,8.284
1.88,8.02
1.884,8.068
1.888,8.304
1.892,8.308
1.896,8.056
1.9,8.012
1.904,8.26
1.908,8.368
1.912,8.116
1.916,7.984
1.92,8.204
1.924,8.376
1.928,8.148
1.932,7.996
1.936,8.168
1.94,8.352
1.944,8.14
1.948,7.98
1.952,8.076
1.956,8.308
1.96,8.18
1.964,8
1.968,8.068
1.972,8.328
1.976,8.24
1.98,8.008
1.984,8.016
1.988,8.284
1.992,8.3
1.996,8.036
2,7.992
2.004,8.224
2.008,8.284
2.012,8.056
2.016,7.96
2.02,8.176
2.024,8.356
2.028,8.104
2.032,7.964
2.036,8.128
2.04,8.336
2.044,8.136
2.048,7.936
2.052,8.048
2.056,8.304
2.06,8.188
2.064,7.964
2.068,8.044
2.072,8.296
2.076,8.228
2.08,7.952
2.084,7.972
2.088,8.236
2.092,8.276
2.096,8.044
2.1,7.98
2.104,8.228
2.108,8.284
2.112,8.036
2.116,7.936
2.12,8.148
2.124,8.28
2.128,8.048
2.132,7.932
2.136,8.136
2.14,8.368
2.144,8.164
2.148,7.956
2.152,8.048
2.156,8.3
2.16,8.192
2.164,7.968
2.168,8.028
2.172,8.308
2.176,8.252
2.18,8.008
2.184,8.044
2.188,8.336
2.192,8.364
2.196,8.108
2.2,8.092
2.204,8.4
2.208,8.48
2.212,8.244
2.216,8.168
2.22,8.34
2.224,8.496
2.228,8.216
2.232,8.056
2.236,8.232
2.24,8.44
2.244,8.248
2.248,7.94
2.252,8.032
2.256,8.252
2.26,8.112
2.264,7.92
2.268,8.008
2.272,8.272
2.276,8.2
2.28,7.9
2.284,7.812
2.288,8.028
2.292,8.16
2.296,8.104
2.3,8.412
2.304,9.268
2.308,10.012
2.312,9.856
2.316,9.476
2.32,9.384
2.324,9.06
2.328,8.232
2.332,7.756
2.336,7.912
2.34,8.172
2.344,8.02
2.348,7.932
2.352,8.092
2.356,8.344
2.36,8.168
2.364,7.924
2.368,7.968
2.372,8.244
2.376,8.204
2.38,7.956
2.384,7.968
2.388,8.224
2.392,8.252
2.396,8
2.4,7.912
2.404,8.152
2.408,8.276
2.412,8.024
2.416,7.96
2.42,8.164
2.424,8.292
2.428,8.104
2.432,7.92
2.436,8.132
2.44,8.332
2.444,8.14
2.448,7.96
2.452,8.108
2.456,8.36
2.46,8.248
2.464,8
2.468,8.04
2.472,8.336
2.476,8.308
2.48,8.052
2.484,8.076
2.488,8.356
2.492,8.368
2.496,8.136
2.5,8.084
2.504,8.356
2.508,8.476
2.512,8.216
2.516,8.144
2.52,8.376
2.524,8.592
2.528,8.344
2.532,8.216
2.536,8.392
2.54,8.672
2.544,8.496
2.548,8.352
2.552,8.484
2.556,8.764
2.56,8.684
2.564,8.48
2.568,8.576
2.572,8.852
2.576,8.82
2.58,8.596
2.584,8.612
2.588,8.96
2.592,8.996
2.596,8.72
2.6,8.708
2.604,8.944
2.608,9.048
2.612,8.796
2.616,8.644
2.62,8.832
2.624,8.936
2.628,8.668
2.632,8.464
2.636,8.604
2.64,8.732
2.644,8.484
2.648,8.232
2.652,8.32
2.656,8.532
2.66,8.38
2.664,8.128
2.668,8.168
2.672,8.392
2.676,8.292
2.68,8.04
2.684,8.044
2.688,8.276
2.692,8.28
2.696,8.036
2.7,8
2.704,8.228
2.708,8.312
2.712,8.04
2.716,7.968
2.72,8.2
2.724,8.352
2.728,8.112
2.732,7.952
2.736,8.116
2.74,8.368
2.744,8.204
2.748,7.984
2.752,8.108
2.756,8.356
2.76,8.248
2.764,8.008
2.768,8.076
2.772,8.348
2.776,8.276
2.78,8.036
2.784,8.076
2.788,8.328
2.792,8.356
2.796,8.112
2.8,8.048
2.804,8.296
2.808,8.404
2.812,8.144
2.816,8.016
2.82,8.232
2.824,8.392
2.828,8.2
2.832,8.024
2.836,8.184
2.84,8.376
2.844,8.2
2.848,8.02
2.852,8.144
2.856,8.38
2.86,8.228
2.864,8
2.868,8.072
2.872,8.348
2.876,8.304
2.88,8.032
2.884,8.044
2.888,8.3
2.892,8.312
2.896,8.04
2.9,7.992
2.904,8.248
2.908,8.368
2.912,8.088
2.916,7.98
2.92,8.168
2.924,8.376
2.928,8.124
2.932,7.98
2.936,8.132
2.94,8.36
2.944,8.14
2.948,7.992
2.952,8.088
2.956,8.368
2.96,8.24
2.964,7.956
2.968,8.052
2.972,8.34
2.976,8.28
2.98,8.004
2.984,8.028
2.988,8.26
2.992,8.296
2.996,8.044
3,8
3.004,8.22
3.008,8.344
3.012,8.072
3.016,7.98
3.02,8.176
3.024,8.336
3.028,8.088
3.032,7.96
3.036,8.144
3.04,8.364
3.044,8.184
3.048,7.988
3.052,8.12
3.056,8.408
3.06,8.296
3.064,8.08
3.068,8.16
3.072,8.412
3.076,8.392
3.08,8.168
3.084,8.208
3.088,8.492
3.092,8.52
3.096,8.24
3.1,8.116
3.104,8.304
3.108,8.452
3.112,8.164
3.116,8.08
3.12,8.316
3.124,8.412
3.128,8.168
3.132,7.98
3.136,8.104
3.14,8.324
3.144,8.16
3.148,7.936
3.152,8.068
3.156,8.268
3.16,8.072
3.164,7.764
3.168,7.928
3.172,8.384
3.176,8.652
3.18,8.968
3.184,9.624
3.188,10.052
3.192,9.852
3.196,9.292
3.2,8.752
3.204,8.384
3.208,8.172
3.212,7.86
3.216,7.868
3.22,8.132
3.224,8.356
3.228,8.18
3.232,7.964
3.236,8.144
3.24,8.336
3.244,8.156
3.248,7.936
3.252,8.068
3.256,8.316
3.26,8.22
3.264,7.976
3.268,8.024
3.272,8.268
3.276,8.252
3.28,8
3.284,7.992
3.288,8.248
3.292,8.296
3.296,8.06
3.3,7.992
3.304,8.208
3.308,8.324
3.312,8.084
3.316,7.988
3.32,8.2
3.324,8.344
3.328,8.124
3.332,7.968
3.336,8.156
3.34,8.396
3.344,8.236
3.348,8.032
3.352,8.148
3.356,8.408
3.36,8.336
3.364,8.116
3.368,8.192
3.372,8.42
3.376,8.412
3.38,8.156
3.384,8.152
3.388,8.464
3.392,8.504
3.396,8.22
3.4,8.2
3.404,8.504
3.408,8.616
3.412,8.356
3.416,8.28
3.42,8.516
3.424,8.732
3.428,8.52
3.432,8.396
3.436,8.568
3.44,8.82
3.444,8.688
3.448,8.52
3.452,8.684
3.456,8.96
3.46,8.856
3.464,8.636
3.468,8.728
3.472,8.98
3.476,8.94
3.48,8.688
3.484,8.688
3.488,8.956
3.492,8.972
3.496,8.68
3.5,8.552
3.504,8.756
3.508,8.832
3.512,8.552
3.516,8.38
3.52,8.512
3.524,8.616
3.528,8.356
3.532,8.18
3.536,8.328
3.54,8.54
3.544,8.312
3.548,8.08
3.552,8.18
3.556,8.424
3.56,8.3
3.564,8.036
3.568,8.092
3.572,8.332
3.576,8.316
3.58,8.048
3.584,7.996
3.588,8.264
3.592,8.3
3.596,8.044
3.6,7.996
3.604,8.236
3.608,8.364
3.612,8.088
3.616,7.968
3.62,8.208
3.624,8.384
3.628,8.156
3.632,8
3.636,8.172
3.64,8.388
3.644,8.192
3.648,8.024
3.652,8.136
3.656,8.416
3.66,8.288
3.664,8.056
3.668,8.136
3.672,8.396
3.676,8.36
3.68,8.1
3.684,8.108
3.688,8.36
3.692,8.376
3.696,8.132
3.7,8.048
3.704,8.288
3.708,8.424
3.712,8.136
3.716,8.06
3.72,8.284
3.724,8.436
3.728,8.196
3.732,8.016
3.736,8.16
3.74,8.396
3.744,8.2
3.748,8
3.752,8.132
3.756,8.368
3.76,8.272
3.764,8.02
3.768,8.1
3.772,8.38
3.776,8.336
3.78,8.056
3.784,8.028
3.788,8.296
3.792,8.344
3.796,8.092
3.8,8.032
3.804,8.252
3.808,8.344
3.812,8.136
3.816,8.02
3.82,8.192
3.824,8.38
3.828,8.148
3.832,8.004
3.836,8.14
3.84,8.336
3.844,8.196
3.848,7.96
3.852,8.112
3.856,8.344
3.86,8.26
3.864,8.016
3.868,8.096
3.872,8.336
3.876,8.292
3.88,8.04
3.884,8.024
3.888,8.296
3.892,8.316
3.896,8.056
3.9,7.988
3.904,8.228
3.908,8.36
3.912,8.128
3.916,8.012
3.92,8.216
3.924,8.376
3.928,8.144
3.932,8
3.936,8.188
3.94,8.436
3.944,8.296
3.948,8.084
3.952,8.208
3.956,8.472
3.96,8.4
3.964,8.196
3.968,8.268
3.972,8.54
3.976,8.448
3.98,8.18
3.984,8.148
3.988,8.44
3.992,8.424
3.996,8.144
4,8.104
4.004,8.264
4.008,8.384
4.012,8.104
4.016,7.964
4.02,8.156
4.024,8.336
4.028,8.12
4.032,7.932
4.036,8.056
4.04,8.18
4.044,7.988
4.048,7.884
4.052,8.184
4.056,8.76
4.06,9.308
4.064,9.68
4.068,9.8
4.072,9.784
4.076,9.452
4.08,8.66
4.084,8.064
4.088,8.068
4.092,8.108
4.096,7.952
4.1,7.92
4.104,8.208
4.108,8.336
4.112,8.104
4.116,7.952
4.12,8.168
4.124,8.32
4.128,8.112
4.132,7.944
4.136,8.064
4.14,8.3
4.144,8.128
4.148,7.956
4.152,8.068
4.156,8.308
4.16,8.204
4.164,7.972
4.168,8.008
4.172,8.28
4.176,8.268
4.18,8.016
4.184,7.996
4.188,8.268
4.192,8.32
4.196,8.068
4.2,8.016
4.204,8.22
4.208,8.328
4.212,8.108
4.216,7.996
4.22,8.22
4.224,8.38
4.228,8.168
4.232,8.016
4.236,8.224
4.24,8.412
4.244,8.264
4.248,8.076
4.252,8.22
4.256,8.464
4.26,8.408
4.264,8.168
4.268,8.232
4.272,8.488
4.276,8.476
4.28,8.24
4.284,8.28
4.288,8.516
4.292,8.568
4.296,8.388
4.3,8.328
4.304,8.612
4.308,8.776
4.312,8.54
4.316,8.444
4.32,8.652
4.324,8.876
4.328,8.712
4.332,8.612
4.336,8.776
4.34,8.972
4.344,8.824
4.348,8.652
4.352,8.804
4.356,9.024
4.36,8.928
4.364,8.72
4.368,8.748
4.372,8.98
4.376,8.932
4.38,8.62
4.384,8.54
4.388,8.76
4.392,8.772
4.396,8.448
4.4,8.308
4.404,8.468
4.408,8.596
4.412,8.312
4.416,8.164
4.42,8.308
4.424,8.444
4.428,8.208
4.432,8.02
4.436,8.164
4.44,8.356
4.444,8.192
4.448,7.964
4.452,8.072
4.456,8.344
4.46,8.264
4.464,7.988
4.468,8.004
4.472,8.292
4.476,8.248
4.48,8.008
4.484,7.984
4.488,8.26
4.492,8.316
4.496,8.096
4.5,8.012
4.504,8.272
4.508,8.388
4.512,8.152
4.516,8.008
4.52,8.216
4.524,8.408
4.528,8.204
4.532,8.016
4.536,8.18
4.54,8.412
4.544,8.272
4.548,8.036
4.552,8.108
4.556,8.384
4.56,8.324
4.564,8.084
4.568,8.116
4.572,8.38
4.576,8.348
4.58,8.116
4.584,8.084
4.588,8.332
4.592,8.36
4.596,8.108
4.6,8.008
4.604,8.24
4.608,8.368
4.612,8.128
4.616,7.964
4.62,8.216
4.624,8.388
4.628,8.192
4.632,8
4.636,8.16
4.64,8.36
4.644,8.224
4.648,8.032
4.652,8.136
4.656,8.348
4.66,8.224
4.664,7.968
4.668,8.032
4.672,8.296
4.676,8.304
4.68,8.048
4.684,8
4.688,8.232
4.692,8.284
4.696,8.032
4.7,7.948
4.704,8.22
4.708,8.336
4.712,8.096
4.716,7.976
4.72,8.168
4.724,8.348
4.728,8.124
4.732,7.984
4.736,8.1
4.74,8.312
4.744,8.168
4.748,7.96
4.752,8.08
4.756,8.32
4.76,8.256
4.764,8.004
4.768,8.06
4.772,8.252
4.776,8.228
4.78,7.984
4.784,7.972
4.788,8.228
4.792,8.26
4.796,7.996
4.8,7.908
4.804,8.184
4.808,8.296
4.812,8.072
4.816,7.936
4.82,8.18
4.824,8.376
4.828,8.172
4.832,8.048
4.836,8.2
4.84,8.436
4.844,8.304
4.848,8.084
4.852,8.228
4.856,8.52
4.86,8.392
4.864,8.12
4.868,8.12
4.872,8.408
4.876,8.376
4.88,8.104
4.884,8.104
4.888,8.312
4.892,8.296
4.896,8.02
4.9,7.9
4.904,8.14
4.908,8.272
4.912,8.028
4.916,7.9
4.92,8.044
4.924,8.124
4.928,7.896
4.932,7.848
4.936,8.196
4.94,8.804
4.944,9.284
4.948,9.74
4.952,9.964
4.956,9.908
4.96,9.508
4.964,8.76
4.968,8.16
4.972,8.08
4.976,8.056
4.98,7.868
4.984,7.876
4.988,8.228
4.992,8.308
4.996,8.044
5,7.944
5.004,8.168
5.008,8.252
5.012,8.024
5.016,7.912
5.02,8.128
5.024,8.304
5.028,8.092
5.032,7.916
5.036,8.068
5.04,8.28
5.044,8.144
5.048,7.94
5.052,8.028
5.056,8.268
5.06,8.232
5.064,7.984
5.068,8.008
5.072,8.224
5.076,8.256
5.08,7.984
5.084,7.964
5.088,8.236
5.092,8.308
5.096,8.052
5.1,8.004
5.104,8.208
5.108,8.38
5.112,8.144
5.116,8.04
5.12,8.224
5.124,8.428
5.128,8.212
5.132,8.036
5.136,8.196
5.14,8.484
5.144,8.384
5.148,8.14
5.152,8.228
5.156,8.5
5.16,8.432
5.164,8.232
5.168,8.28
5.172,8.548
5.176,8.576
5.18,8.348
5.184,8.328
5.188,8.632
5.192,8.716
5.196,8.488
5.2,8.44
5.204,8.708
5.208,8.892
5.212,8.672
5.216,8.568
5.22,8.784
5.224,9.004
5.228,8.844
5.232,8.688
5.236,8.828
5.24,9.06
5.244,8.916
5.248,8.728
5.252,8.816
5.256,9.016
5.26,8.888
5.264,8.588
5.268,8.588
5.272,8.812
5.276,8.756
5.28,8.408
5.284,8.332
5.288,8.528
5.292,8.536
5.296,8.284
5.3,8.156
5.304,8.348
5.308,8.448
5.312,8.168
5.316,8.024
5.32,8.188
5.324,8.396
5.328,8.164
5.332,7.972
5.336,8.124
5.34,8.312
5.344,8.184
5.348,7.988
5.352,8.028
5.356,8.316
5.36,8.252
5.364,7.988
5.368,8
5.372,8.276
5.376,8.284
5.38,8.032
5.384,8
5.388,8.264
5.392,8.34
5.396,8.072
5.4,7.972
5.404,8.22
5.408,8.36
5.412,8.14
5.416,7.972
5.42,8.188
5.424,8.424
5.428,8.196
5.432,8.016
5.436,8.176
5.44,8.412
5.444,8.272
5.448,8.048
5.452,8.124
5.456,8.38
5.46,8.296
5.464,8.04
5.468,8.064
5.472,8.336
5.476,8.344
5.48,8.092
5.484,8.04
5.488,8.276
5.492,8.34
5.496,8.088
5.5,8.008
5.504,8.252
5.508,8.396
5.512,8.128
5.516,7.984
5.52,8.164
5.524,8.364
5.528,8.148
5.532,7.976
5.536,8.12
5.54,8.328
5.544,8.184
5.548,7.976
5.552,8.06
5.556,8.308
5.56,8.22
5.564,7.996
5.568,8.052
5.572,8.292
5.576,8.26
5.58,8.004
5.584,7.992
5.588,8.236
5.592,8.304
5.596,8.052
5.6,7.932
5.604,8.18
5.608,8.332
5.612,8.076
5.616,7.948
5.62,8.14
5.624,8.336
5.628,8.14
5.632,7.996
5.636,8.108
5.64,8.336
5.644,8.176
5.648,7.984
5.652,8.048
5.656,8.316
5.66,8.228
5.664,7.98
5.668,8.036
5.672,8.288
5.676,8.296
5.68,8.028
5.684,8.028
5.688,8.3
5.692,8.388
5.696,8.148
5.7,8.096
5.704,8.292
5.708,8.448
5.712,8.248
5.716,8.16
5.72,8.396
5.724,8.568
5.728,8.332
5.732,8.116
5.736,8.188
5.74,8.428
5.744,8.3
5.748,8.036
5.752,8.156
5.756,8.356
5.76,8.264
5.764,7.972
5.768,8.012
5.772,8.22
5.776,8.224
5.78,7.948
5.784,7.94
5.788,8.156
5.792,8.132
5.796,7.804
5.8,7.848
5.804,8.232
5.808,8.704
5.812,9.028
5.816,9.568
5.82,9.928
5.824,9.848
5.828,9.372
5.832,8.712
5.836,8.244
5.84,8.16
5.844,7.952
5.848,7.836
5.852,8.028
5.856,8.316
5.86,8.24
5.864,7.992
5.868,8.048
5.872,8.28
5.876,8.252
5.88,7.988
5.884,7.916
5.888,8.176
5.892,8.268
5.896,7.992
5.9,7.932
5.904,8.156
5.908,8.284
5.912,8.06
5.916,7.92
5.92,8.108
5.924,8.276
5.928,8.112
5.932,7.94
5.936,8.072
5.94,8.304
5.944,8.172
5.948,7.968
5.952,8.048
5.956,8.312
5.96,8.228
5.964,7.992
5.968,8.04
5.972,8.316
5.976,8.308
5.98,8.084
5.984,8.032
5.988,8.296
5.992,8.376
5.996,8.14
6,8.072
6.004,8.288
6.008,8.404
6.012,8.18
6.016,8.072
6.02,8.296
6.024,8.504
6.028,8.316
6.032,8.168
6.036,8.316
6.04,8.556
6.044,8.472
6.048,8.264
6.052,8.38
6.056,8.648
6.06,8.632
6.064,8.42
6.068,8.456
6.072,8.704
6.076,8.736
6.08,8.524
6.084,8.516
6.088,8.824
6.092,8.928
6.096,8.672
6.1,8.592
6.104,8.876
6.108,9.02
6.112,8.772
6.116,8.652
6.12,8.8
6.124,8.988
6.128,8.78
6.132,8.56
6.136,8.6
6.14,8.768
6.144,8.608
6.148,8.336
6.152,8.396
6.156,8.58
6.16,8.464
6.164,8.184
6.168,8.164
6.172,8.424
6.176,8.408
6.18,8.124
6.184,8.044
6.188,8.244
6.192,8.34
6.196,8.076
6.2,7.972
6.204,8.192
6.208,8.324
6.212,8.104
6.216,7.956
6.22,8.124
6.224,8.304
6.228,8.12
6.232,7.948
6.236,8.108
6.24,8.332
6.244,8.18
6.248,7.956
6.252,8.036
6.256,8.316
6.26,8.248
6.264,7.988
6.268,8.012
6.272,8.288
6.276,8.284
6.28,8.052
6.284,8.028
6.288,8.288
6.292,8.34
6.296,8.096
6.3,8.016
6.304,8.232
6.308,8.368
6.312,8.14
6.316,8
6.32,8.192
6.324,8.388
6.328,8.2
6.332,8
6.336,8.112
6.34,8.36
6.344,8.228
6.348,8.02
6.352,8.072
6.356,8.34
6.36,8.28
6.364,8.028
6.368,8.044
6.372,8.288
6.376,8.3
6.38,8.028
6.384,7.996
6.388,8.22
6.392,8.324
6.396,8.076
6.4,7.956
6.404,8.18
6.408,8.348
6.412,8.1
6.416,7.964
6.42,8.128
6.424,8.332
6.428,8.16
6.432,7.968
6.436,8.064
6.44,8.304
6.444,8.152
6.448,7.94
6.452,8.044
6.456,8.308
6.46,8.248
6.464,7.98
6.468,7.992
6.472,8.288
6.476,8.304
6.48,8.004
6.484,7.956
6.488,8.204
6.492,8.272
6.496,8.036
6.5,7.952
6.504,8.164
6.508,8.336
6.512,8.064
6.516,7.956
6.52,8.132
6.524,8.32
6.528,8.12
6.532,7.928
6.536,8.096
6.54,8.316
6.544,8.16
6.548,7.944
6.552,8.032
6.556,8.284
6.56,8.256
6.564,7.98
6.568,8.008
6.572,8.252
6.576,8.268
6.58,8.028
6.584,7.96
6.588,8.2
6.592,8.332
6.596,8.116
6.6,8.06
6.604,8.284
6.608,8.42
6.612,8.176
6.616,8.056
6.62,8.284
6.624,8.496
6.628,8.344
6.632,8.14
6.636,8.24
6.64,8.416
6.644,8.284
6.648,8.072
6.652,8.104
6.656,8.348
6.66,8.276
6.664,8.024
6.668,8.028
6.672,8.252
6.676,8.236
6.68,7.972
6.684,7.924
6.688,8.18
6.692,8.26
6.696,7.924
6.7,7.74
6.704,7.936
6.708,8.212
6.712,8.192
6.716,8.448
6.72,9.316
6.724,9.98
6.728,9.716
6.732,9.24
6.736,9.056
6.74,8.716
6.744,8.148
6.748,7.768
6.752,7.848
6.756,8.184
6.76,8.2
6.764,8
6.768,8.032
6.772,8.272
6.776,8.268
6.78,7.968
6.784,7.936
6.788,8.148
6.792,8.264
6.796,8.028
6.8,7.884
6.804,8.08
6.808,8.252
6.812,8.008
6.816,7.912
6.82,8.088
6.824,8.32
6.828,8.092
6.832,7.92
6.836,8.044
6.84,8.28
6.844,8.152
6.848,7.924
6.852,7.984
6.856,8.264
6.86,8.22
6.864,7.976
6.868,8.016
6.872,8.268
6.876,8.3
6.88,8.036
6.884,8
6.888,8.24
6.892,8.328
6.896,8.092
6.9,7.984
6.904,8.236
6.908,8.424
6.912,8.164
6.916,8.028
6.92,8.252
6.924,8.46
6.928,8.296
6.932,8.092
6.936,8.26
6.94,8.528
6.944,8.412
6.948,8.2
6.952,8.3
6.956,8.588
6.96,8.54
6.964,8.332
6.968,8.348
6.972,8.644
6.976,8.66
6.98,8.456
6.984,8.464
6.988,8.74
6.992,8.86
6.996,8.608
7,8.56
7.004,8.792
7.008,8.98
7.012,8.732
7.016,8.6
7.02,8.772
7.024,8.972
7.028,8.776
7.032,8.584
7.036,8.684
7.04,8.836
7.044,8.668
7.048,8.396
7.052,8.416
7.056,8.628
7.06,8.528
7.064,8.228
7.068,8.192
7.072,8.424
7.076,8.396
7.08,8.128
7.084,8.04
7.088,8.256
7.092,8.328
7.096,8.08
7.1,7.968
7.104,8.176
7.108,8.296
7.112,8.06
7.116,7.944
7.12,8.1
7.124,8.296
7.128,8.12
7.132,7.936
7.136,8.076
7.14,8.296
7.144,8.152
7.148,7.948
7.152,8.008
7.156,8.288
7.16,8.244
7.164,7.964
7.168,7.98
7.172,8.24
7.176,8.256
7.18,8.032
7.184,7.96
7.188,8.216
7.192,8.304
7.196,8.04
7.2,7.956
7.204,8.208
7.208,8.344
7.212,8.116
7.216,7.96
7.22,8.164
7.224,8.376
7.228,8.176
7.232,8
7.236,8.112
7.24,8.32
7.244,8.204
7.248,8.004
7.252,8.044
7.256,8.304
7.26,8.236
7.264,7.98
7.268,7.968
7.272,8.24
7.276,8.26
7.28,8.016
7.284,7.984
7.288,8.24
7.292,8.332
7.296,8.032
7.3,7.964
7.304,8.168
7.308,8.324
7.312,8.056
7.316,7.884
7.32,8.056
7.324,8.288
7.328,8.136
7.332,7.94
7.336,8.056
7.34,8.296
7.344,8.14
7.348,7.932
7.352,8.04
7.356,8.276
7.36,8.224
7.364,7.956
7.368,7.96
7.372,8.232
7.376,8.236
7.38,7.984
7.384,7.916
7.388,8.16
7.392,8.276
7.396,8.004
7.4,7.896
7.404,8.144
7.408,8.328
7.412,8.076
7.416,7.928
7.42,8.096
7.424,8.284
7.428,8.12
7.432,7.908
7.436,8.036
7.44,8.296
7.444,8.184
7.448,7.94
7.452,7.992
7.456,8.236
7.46,8.216
7.464,7.972
7.468,8.024
7.472,8.296
7.476,8.344
7.48,8.076
7.484,8.032
7.488,8.312
7.492,8.468
7.496,8.244
7.5,8.116
7.504,8.296
7.508,8.428
7.512,8.136
7.516,8.02
7.52,8.176
7.524,8.36
7.528,8.196
7.532,7.948
7.536,8.072
7.54,8.3
7.544,8.136
7.548,7.888
7.552,7.92
7.556,8.176
7.56,8.124
7.564,7.848
7.568,7.792
7.572,7.98
7.576,8.092
7.58,7.984
7.584,8.2
7.588,9.04
7.592,9.848
7.596,9.796
7.6,9.464
7.604,9.384
7.608,9.128
7.612,8.288
7.616,7.72
7.62,7.808
7.624,8.108
7.628,7.976
7.632,7.88
7.636,8.04
7.64,8.284
7.644,8.128
7.648,7.896
7.652,7.944
7.656,8.212
7.66,8.14
7.664,7.904
7.668,7.924
7.672,8.188
7.676,8.18
7.68,7.904
7.684,7.86
7.688,8.124
7.692,8.252
7.696,8.008
7.7,7.896
7.704,8.084
7.708,8.244
7.712,8.024
7.716,7.876
7.72,8.044
7.724,8.252
7.728,8.088
7.732,7.9
7.736,8.056
7.74,8.324
7.744,8.176
7.748,7.928
7.752,8
7.756,8.288
7.76,8.24
7.764,7.98
7.768,8.012
7.772,8.292
7.776,8.336
7.78,8.08
7.784,8.052
7.788,8.296
7.792,8.416
7.796,8.18
7.8,8.096
7.804,8.332
7.808,8.488
7.812,8.28
7.816,8.156
7.82,8.336
7.824,8.584
7.828,8.464
7.832,8.284
7.836,8.432
7.84,8.708
7.844,8.604
7.848,8.444
7.852,8.552
7.856,8.84
7.86,8.792
7.864,8.584
7.868,8.612
7.872,8.9
7.876,8.928
7.88,8.676
7.884,8.644
7.888,8.876
7.892,8.988
7.896,8.728
7.9,8.6
7.904,8.8
7.908,8.912
7.912,8.64
7.916,8.396
7.92,8.524
7.924,8.668
7.928,8.44
7.932,8.212
7.936,8.276
7.94,8.444
7.944,8.328
7.948,8.068
7.952,8.152
7.956,8.36
7.96,8.232
7.964,7.964
7.968,7.932
7.972,8.212
7.976,8.26
7.98,8.016
7.984,7.952
7.988,8.18
7.992,8.28
7.996,8.012
8,7.904
8.004,8.124
8.008,8.268
8.012,8.064
8.016,7.928
8.02,8.092
8.024,8.304
8.028,8.124
8.032,7.928
8.036,8.06
8.04,8.312
8.044,8.188
8.048,7.952
8.052,8
8.056,8.292
8.06,8.26
8.064,8.02
8.068,8.008
8.072,8.268
8.076,8.308
8.08,8.032
8.084,7.992
8.088,8.236
8.092,8.32
8.096,8.056
8.1,7.968
8.104,8.188
8.108,8.376
8.112,8.108
8.116,7.98
8.12,8.112
8.124,8.332
8.128,8.164
8.132,7.952
8.136,8.08
8.14,8.304
8.144,8.204
8.148,7.968
8.152,8.044
8.156,8.276
8.16,8.228
8.164,7.964
8.168,7.996
8.172,8.232
8.176,8.276
8.18,8.016
8.184,7.968
8.188,8.204
8.192,8.296
8.196,8.032
8.2,7.928
8.204,8.156
8.208,8.296
8.212,8.092
8.216,7.92
8.22,8.088
8.224,8.272
8.228,8.12
8.232,7.908
8.236,8.02
8.24,8.264
8.244,8.16
8.248,7.956
8.252,8
8.256,8.248
8.26,8.212
8.264,7.936
8.268,7.96
8.272,8.216
8.276,8.268
8.28,8.024
8.284,7.976
8.288,8.188
8.292,8.288
8.296,8.028
8.3,7.904
8.304,8.124
8.308,8.312
8.312,8.048
8.316,7.9
8.32,8.068
8.324,8.304
8.328,8.096
8.332,7.936
8.336,8.052
8.34,8.312
8.344,8.196
8.348,7.944
8.352,7.992
8.356,8.272
8.36,8.276
8.364,8.06
8.368,8.076
8.372,8.32
8.376,8.372
8.38,8.168
8.384,8.136
8.388,8.356
8.392,8.5
8.396,8.208
8.4,8.088
8.404,8.236
8.408,8.42
8.412,8.172
8.416,8
8.42,8.2
8.424,8.388
8.428,8.18
8.432,7.932
8.436,8.036
8.44,8.264
8.444,8.148
8.448,7.932
8.452,7.972
8.456,8.18
8.46,8.076
8.464,7.728
8.468,7.796
8.472,8.184
8.476,8.472
8.48,8.7
8.484,9.348
8.488,9.992
8.492,9.928
8.496,9.348
8.5,8.872
8.504,8.492
8.508,8.188
8.512,7.856
8.516,7.764
8.52,7.988
8.524,8.288
8.528,8.164
8.532,7.956
8.536,8.068
8.54,8.268
8.544,8.128
8.548,7.904
8.552,7.976
8.556,8.24
8.56,8.176
8.564,7.924
8.568,7.928
8.572,8.204
8.576,8.244
8.58,7.964
8.584,7.896
8.588,8.124
8.592,8.272
8.596,8.02
8.6,7.92
8.604,8.112
8.608,8.292
8.612,8.044
8.616,7.932
8.62,8.096
8.624,8.304
8.628,8.132
8.632,7.964
8.636,8.096
8.64,8.336
8.644,8.22
8.648,8.004
8.652,8.048
8.656,8.328
8.66,8.308
8.664,8.064
8.668,8.088
8.672,8.344
8.676,8.368
8.68,8.116
8.684,8.112
8.688,8.34
8.692,8.456
8.696,8.22
8.7,8.128
8.704,8.372
8.708,8.52
8.712,8.336
8.716,8.22
8.72,8.428
8.724,8.636
8.728,8.508
8.732,8.324
8.736,8.464
8.74,8.748
8.744,8.708
8.748,8.504
8.752,8.6
8.756,8.84
8.76,8.836
8.764,8.612
8.768,8.628
8.772,8.872
8.776,8.944
8.78,8.684
8.784,8.656
8.788,8.884
8.792,8.992
8.796,8.692
8.8,8.536
8.804,8.688
8.808,8.82
8.812,8.536
8.816,8.352
8.82,8.432
8.824,8.6
8.828,8.384
8.832,8.164
8.836,8.24
8.84,8.448
8.844,8.304
8.848,8.052
8.852,8.124
8.856,8.352
8.86,8.288
8.864,8.012
8.868,7.992
8.872,8.24
8.876,8.276
8.88,8.032
8.884,7.968
8.888,8.168
8.892,8.292
8.896,8.04
8.9,7.936
8.904,8.136
8.908,8.316
8.912,8.068
8.916,7.912
8.92,8.096
8.924,8.324
8.928,8.152
8.932,7.936
8.936,8.048
8.94,8.304
8.944,8.236
8.948,7.984
8.952,8.028
8.956,8.292
8.96,8.292
8.964,8.036
8.968,8.02
8.972,8.28
8.976,8.34
8.98,8.092
8.984,7.996
8.988,8.24
8.992,8.332
8.996,8.1
9,7.956
9.004,8.168
9.008,8.344
9.012,8.128
9.016,7.964
9.02,8.096
9.024,8.332
9.028,8.172
9.032,7.96
9.036,8.076
9.04,8.32
9.044,8.212
9.048,7.98
9.052,8.008
9.056,8.276
9.06,8.248
9.064,8.004
9.068,7.976
9.072,8.24
9.076,8.276
9.08,7.996
9.084,7.948
9.088,8.168
9.092,8.316
9.096,8.056
9.1,7.96
9.104,8.152
9.108,8.292
9.112,8.08
9.116,7.924
9.12,8.072
9.124,8.296
9.128,8.124
9.132,7.924
9.136,8.036
9.14,8.28
9.144,8.18
9.148,7.956
9.152,7.988
9.156,8.272
9.16,8.248
9.164,7.944
9.168,7.964
9.172,8.22
9.176,8.276
9.18,8.028
9.184,7.936
9.188,8.168
9.192,8.292
9.196,8.028
9.2,7.92
9.204,8.092
9.208,8.308
9.212,8.088
9.216,7.908
9.22,8.08
9.224,8.308
9.228,8.148
9.232,7.904
9.236,8.044
9.24,8.308
9.244,8.212
9.248,7.936
9.252,7.992
9.256,8.24
9.26,8.292
9.264,8.068
9.268,8.064
9.272,8.34
9.276,8.376
9.28,8.136
9.284,8.092
9.288,8.324
9.292,8.464
9.296,8.244
9.3,8.096
9.304,8.212
9.308,8.384
9.312,8.184
9.316,8.012
9.32,8.156
9.324,8.392
9.328,8.188
9.332,7.968
9.336,8.04
9.34,8.264
9.344,8.164
9.348,7.932
9.352,7.964
9.356,8.196
9.36,8.14
9.364,7.784
9.368,7.728
9.372,8.104
9.376,8.312
9.38,8.384
9.384,8.86
9.388,9.724
9.392,9.96
9.396,9.448
9.4,9.064
9.404,8.72
9.408,8.396
9.412,7.904
9.416,7.716
9.42,8.02
9.424,8.296
9.428,8.18
9.432,7.976
9.436,8.056
9.44,8.244
9.444,8.128
9.448,7.896
9.452,7.976
9.456,8.22
9.46,8.232
9.464,7.928
9.468,7.908
9.472,8.18
9.476,8.248
9.48,7.976
9.484,7.88
9.488,8.132
9.492,8.24
9.496,8
9.5,7.904
9.504,8.096
9.508,8.208
9.512,8.044
9.516,7.912
9.52,8.072
9.524,8.296
9.528,8.16
9.532,7.948
9.536,8.032
9.54,8.332
9.544,8.228
9.548,8.004
9.552,8.032
9.556,8.3
9.56,8.288
9.564,8.052
9.568,8.048
9.572,8.304
9.576,8.352
9.58,8.124
9.584,8.088
9.588,8.316
9.592,8.472
9.596,8.22
9.6,8.124
9.604,8.356
9.608,8.576
9.612,8.356
9.616,8.192
9.62,8.352
9.624,8.64
9.628,8.544
9.632,8.344
9.636,8.468
9.64,8.728
9.644,8.684
9.648,8.46
9.652,8.56
9.656,8.848
9.66,8.852
9.664,8.612
9.668,8.64
9.672,8.924
9.676,8.988
9.68,8.724
9.684,8.656
9.688,8.876
9.692,9.04
9.696,8.772
9.7,8.616
9.704,8.764
9.708,8.896
9.712,8.612
9.716,8.388
9.72,8.444
9.724,8.62
9.728,8.432
9.732,8.196
9.736,8.28
9.74,8.496
9.744,8.324
9.748,8.088
9.752,8.128
9.756,8.408
9.76,8.356
9.764,8.052
9.768,8.052
9.772,8.292
9.776,8.328
9.78,8.036
9.784,7.948
9.788,8.144
9.792,8.296
9.796,8.036
9.8,7.932
9.804,8.148
9.808,8.352
9.812,8.16
9.816,7.928
9.82,8.112
9.824,8.316
9.828,8.192
9.832,7.984
9.836,8.112
9.84,8.36
9.844,8.268
9.848,8.008
9.852,8.032
9.856,8.264
9.86,8.26
9.864,8.06
9.868,8.048
9.872,8.292
9.876,8.324
9.88,8.076
9.884,8.052
9.888,8.232
9.892,8.392
9.896,8.128
9.9,7.98
9.904,8.2
9.908,8.372
9.912,8.18
9.916,7.996
9.92,8.152
9.924,8.388
9.928,8.216
9.932,7.968
9.936,8.084
9.94,8.312
9.944,8.236
9.948,8.012
9.952,8.072
9.956,8.336
9.96,8.316
9.964,8.016
9.968,8.012
9.972,8.24
9.976,8.3
9.98,8.052
9.984,7.992
9.988,8.212
9.992,8.308
9.996,8.104
10,7.976
10.004,8.16
10.008,8.308
10.012,8.112
10.016,7.916
10.02,8.092
10.024,8.324
10.028,8.188
10.032,7.972
10.036,8.068
10.04,8.312
10.044,8.22
10.048,7.964
10.052,8.028
10.056,8.3
10.06,8.336
10.064,8
10.068,7.996
10.072,8.216
10.076,8.296
10.08,8.008
10.084,7.96
10.088,8.192
10.092,8.312
10.096,8.124
10.1,7.996
10.104,8.16
10.108,8.372
10.112,8.14
10.116,7.92
10.12,8.096
10.124,8.344
10.128,8.208
10.132,7.992
10.136,8.108
10.14,8.36
10.144,8.24
10.148,8.064
10.152,8.124
10.156,8.4
10.16,8.376
10.164,8.132
10.168,8.16
10.172,8.42
10.176,8.436
10.18,8.12
10.184,8.052
10.188,8.276
10.192,8.392
10.196,8.152
10.2,8.032
10.204,8.196
10.208,8.372
10.212,8.088
10.216,7.852
10.22,7.988
10.224,8.22
10.228,8.112
10.232,7.856
10.236,7.908
10.24,8.12
10.244,7.968
10.248,7.92
10.252,8.212
10.256,8.808
10.26,9.388
10.264,9.696
10.268,9.776
10.272,9.72
10.276,9.432
10.28,8.68
10.284,7.956
10.288,7.884
10.292,8.016
10.296,7.872
10.3,7.832
10.304,8.12
10.308,8.372
10.312,8.112
10.316,7.84
10.32,8.016
10.324,8.244
10.328,8.152
10.332,7.912
10.336,8
10.34,8.26
10.344,8.196
10.348,7.936
10.352,7.96
10.356,8.2
10.36,8.192
10.364,7.972
10.368,7.936
10.372,8.22
10.376,8.288
10.38,8.008
10.384,7.932
10.388,8.136
10.392,8.312
10.396,8.028
10.4,7.948
10.404,8.112
10.408,8.324
10.412,8.132
10.416,7.976
10.42,8.132
10.424,8.376
10.428,8.2
10.432,8.012
10.436,8.128
10.44,8.408
10.444,8.344
10.448,8.112
10.452,8.18
10.456,8.428
10.46,8.424
10.464,8.14
10.468,8.144
10.472,8.432
10.476,8.532
10.48,8.296
10.484,8.24
10.488,8.472
10.492,8.64
10.496,8.396
10.5,8.3
10.504,8.56
10.508,8.812
10.512,8.612
10.516,8.432
10.52,8.604
10.524,8.904
10.528,8.768
10.532,8.604
10.536,8.728
10.54,9.02
10.544,8.992
10.548,8.78
10.552,8.832
10.556,9.056
10.56,9.016
10.564,8.772
10.568,8.736
10.572,9.004
10.576,9.024
10.58,8.728
10.584,8.572
10.588,8.72
10.592,8.812
10.596,8.516
10.6,8.344
10.604,8.448
10.608,8.612
10.612,8.4
10.616,8.176
10.62,8.272
10.624,8.448
10.628,8.276
10.632,8.064
10.636,8.168
10.64,8.408
10.644,8.344
10.648,8.072
10.652,8.052
10.656,8.316
10.66,8.296
10.664,8.06
10.668,8.028
10.672,8.284
10.676,8.348
10.68,8.096
10.684,7.988
10.688,8.2
10.692,8.356
10.696,8.116
10.7,7.992
10.704,8.2
10.708,8.396
10.712,8.164
10.716,8.012
10.72,8.16
10.724,8.396
10.728,8.252
10.732,8.064
10.736,8.136
10.74,8.416
10.744,8.34
10.748,8.08
10.752,8.068
10.756,8.336
10.76,8.324
10.764,8.084
10.768,8.104
10.772,8.344
10.776,8.38
10.78,8.092
10.784,8.044
10.788,8.276
10.792,8.4
10.796,8.148
10.8,7.988
10.804,8.168
10.808,8.392
10.812,8.172
10.816,8.012
10.82,8.088
10.824,8.36
10.828,8.2
10.832,7.98
10.836,8.084
10.84,8.352
10.844,8.296
10.848,8.016
10.852,8.064
10.856,8.28
10.86,8.284
10.864,8.032
10.868,8.036
10.872,8.272
10.876,8.304
10.88,8.044
10.884,7.944
10.888,8.16
10.892,8.364
10.896,8.104
10.9,7.984
10.904,8.14
10.908,8.3
10.912,8.096
10.916,7.896
10.92,8.08
10.924,8.324
10.928,8.204
10.932,7.924
10.936,7.992
10.94,8.216
10.944,8.156
10.948,7.908
10.952,7.996
10.956,8.252
10.96,8.208
10.964,7.956
10.968,7.912
10.972,8.156
10.976,8.252
10.98,7.996
10.984,7.88
10.988,8.108
10.992,8.28
10.996,8.048
11,7.964
11.004,8.164
11.008,8.32
11.012,8.112
11.016,8.024
11.02,8.204
11.024,8.444
11.028,8.328
11.032,8.056
11.036,8.088
11.04,8.284
11.044,8.22
11.048,8
11.052,8.012
11.056,8.236
11.06,8.24
11.064,7.952
11.068,7.884
11.072,8.08
11.076,8.12
11.08,7.896
11.084,7.8
11.088,7.996
11.092,8.096
11.096,7.8
11.1,7.588
11.104,7.856
11.108,8.192
11.112,8.276
11.116,8.652
11.12,9.512
11.124,10.088
11.128,9.696
11.132,9.176
11.136,8.768
11.14,8.364
11.144,7.876
11.148,7.58
11.152,7.724
11.156,8.088
11.16,8.108
11.164,7.892
11.168,7.856
11.172,8.036
11.176,8.072
11.18,7.836
11.184,7.76
11.188,7.948
11.192,8.108
11.196,7.848
11.2,7.716
11.204,7.9
11.208,8.096
11.212,7.896
11.216,7.704
11.22,7.844
11.224,8.064
11.228,7.9
11.232,7.764
11.236,7.828
11.24,8.052
11.244,7.992
11.248,7.796
11.252,7.788
11.256,8.024
11.26,8.016
11.264,7.784
11.268,7.776
11.272,8.044
11.276,8.104
11.28,7.852
11.284,7.796
11.288,8.032
11.292,8.124
11.296,7.9
11.3,7.796
11.304,7.972
11.308,8.172
11.312,7.972
11.316,7.856
11.32,8.028
11.324,8.26
11.328,8.112
11.332,7.94
11.336,8.044
11.34,8.28
11.344,8.24
11.348,8.048
11.352,8.1
11.356,8.34
11.36,8.372
11.364,8.192
11.368,8.192
11.372,8.444
11.376,8.564
11.38,8.372
11.384,8.316
11.388,8.552
11.392,8.672
11.396,8.476
11.4,8.46
11.404,8.632
11.408,8.824
11.412,8.628
11.416,8.496
11.42,8.58
11.424,8.82
11.428,8.656
11.432,8.468
11.436,8.484
11.44,8.636
11.444,8.512
11.448,8.252
11.452,8.228
11.456,8.416
11.46,8.328
11.464,8.04
11.468,7.96
11.472,8.152
11.476,8.192
11.48,7.94
11.484,7.872
11.488,8.036
11.492,8.16
11.496,7.908
11.5,7.792
11.504,7.964
11.508,8.124
11.512,7.928
11.516,7.796
11.52,7.9
11.524,8.1
11.528,7.964
11.532,7.768
11.536,7.852
11.54,8.088
11.544,8.012
11.548,7.836
11.552,7.836
11.556,8.04
11.56,8.036
11.564,7.824
11.568,7.812
11.572,8.056
11.576,8.144
11.58,7.9
11.584,7.84
11.588,8.012
11.592,8.128
11.596,7.9
11.6,7.836
11.604,7.984
11.608,8.168
11.612,8.008
11.616,7.88
11.62,7.996
11.624,8.216
11.628,8.08
11.632,7.86
11.636,7.94
11.64,8.164
11.644,8.1
11.648,7.904
11.652,7.896
11.656,8.128
11.66,8.136
11.664,7.924
11.668,7.904
11.672,8.108
11.676,8.168
11.68,7.94
11.684,7.884
11.688,8.052
11.692,8.176
11.696,7.976
11.7,7.86
11.704,8
11.708,8.2
11.712,8.04
11.716,7.896
11.72,8.004
11.724,8.164
11.728,8.072
11.732,7.872
11.736,7.96
11.74,8.136
11.744,8.088
11.748,7.872
11.752,7.916
11.756,8.14
11.76,8.148
11.764,7.924
11.768,7.92
11.772,8.124
11.776,8.196
11.78,7.964
11.784,7.88
11.788,8.064
11.792,8.188
11.796,7.984
11.8,7.892
11.804,8.04
11.808,8.176
11.812,8.024
11.816,7.86
11.82,8.004
11.824,8.196
11.828,8.08
11.832,7.904
11.836,7.984
11.84,8.204
11.844,8.144
11.848,7.92
11.852,7.94
11.856,8.192
11.86,8.212
11.864,8.052
11.868,8.028
11.872,8.232
11.876,8.288
11.88,8.112
11.884,8.132
11.888,8.328
11.892,8.46
11.896,8.2
11.9,8.02
11.904,8.128
11.908,8.344
11.912,8.168
11.916,8.024
11.92,8.136
11.924,8.348
11.928,8.192
11.932,7.94
11.936,8.016
11.94,8.18
11.944,8.104
11.948,7.872
11.952,7.888
11.956,8.124
11.96,8.044
11.964,7.748
11.968,7.768
11.972,8.1
11.976,8.392
11.98,8.672
11.984,9.356
11.988,9.952
11.992,9.916
11.996,9.384
12,8.932
12.004,8.484
12.008,8.112
12.012,7.784
12.016,7.68
12.02,7.896
12.024,8.208
12.028,8.156
12.032,7.996
12.036,8.028
12.04,8.148
12.044,8.112
12.048,7.948
12.052,7.984
12.056,8.184
12.06,8.16
12.064,7.924
12.068,7.888
12.072,8.088
12.076,8.152
12.08,7.976
12.084,7.92
12.088,8.096
12.092,8.188
12.096,7.988
12.1,7.888
12.104,8.052
12.108,8.204
12.112,8.072
12.116,7.932
12.12,8.036
12.124,8.204
12.128,8.104
12.132,7.952
12.136,8.064
12.14,8.308
12.144,8.22
12.148,8.02
12.152,8.04
12.156,8.316
12.16,8.332
12.164,8.124
12.168,8.056
12.172,8.228
12.176,8.328
12.18,8.108
12.184,8.04
12.188,8.232
12.192,8.404
12.196,8.216
12.2,8.152
12.204,8.308
12.208,8.48
12.212,8.308
12.216,8.192
12.22,8.372
12.224,8.588
12.228,8.54
12.232,8.396
12.236,8.516
12.24,8.712
12.244,8.684
12.248,8.508
12.252,8.552
12.256,8.84
12.26,8.848
12.264,8.668
12.268,8.66
12.272,8.84
12.276,8.904
12.28,8.708
12.284,8.66
12.288,8.816
12.292,8.928
12.296,8.676
12.3,8.548
12.304,8.648
12.308,8.784
12.312,8.584
12.316,8.388
12.32,8.408
12.324,8.524
12.328,8.396
12.332,8.212
12.336,8.236
12.34,8.428
12.344,8.312
12.348,8.068
12.352,8.12
12.356,8.328
12.36,8.284
12.364,8.012
12.368,7.976
12.372,8.176
12.376,8.224
12.38,8.004
12.384,7.956
12.388,8.148
12.392,8.236
12.396,8.1
12.4,7.98
12.404,8.128
12.408,8.3
12.412,8.124
12.416,7.992
12.42,8.132
12.424,8.252
12.428,8.124
12.432,7.98
12.436,8.048
12.44,8.304
12.444,8.256
12.448,8.04
12.452,8.068
12.456,8.264
12.46,8.292
12.464,8.076
12.468,8.044
12.472,8.26
12.476,8.316
12.48,8.12
12.484,8.064
12.488,8.228
12.492,8.356
12.496,8.156
12.5,8.084
12.504,8.236
12.508,8.404
12.512,8.2
12.516,8.004
12.52,8.112
12.524,8.364
12.528,8.264
12.532,8.056
12.536,8.112
12.54,8.324
12.544,8.26
12.548,8.036
12.552,8.044
12.556,8.272
12.56,8.292
12.564,8.088
12.568,8.06
12.572,8.26
12.576,8.312
12.58,8.092
12.584,8.012
12.588,8.18
12.592,8.364
12.596,8.16
12.6,8.008
12.604,8.14
12.608,8.344
12.612,8.16
12.616,8.016
12.62,8.104
12.624,8.312
12.628,8.188
12.632,7.988
12.636,8.036
12.64,8.248
12.644,8.224
12.648,8
12.652,8.064
12.656,8.292
12.66,8.272
12.664,8.04
12.668,8
12.672,8.2
12.676,8.316
12.68,8.072
12.684,7.968
12.688,8.172
12.692,8.32
12.696,8.132
12.7,8.024
12.704,8.132
12.708,8.312
12.712,8.168
12.716,8.02
12.72,8.208
12.724,8.404
12.728,8.284
12.732,8.08
12.736,8.192
12.74,8.476
12.744,8.452
12.748,8.212
12.752,8.2
12.756,8.396
12.76,8.36
12.764,8.1
12.768,8.112
12.772,8.324
12.776,8.352
12.78,8.132
12.784,8.036
12.788,8.216
12.792,8.28
12.796,8.028
12.8,7.892
12.804,8.076
12.808,8.236
12.812,8.08
12.816,7.896
12.82,7.916
12.824,8.08
12.828,8.036
12.832,7.984
12.836,8.328
12.84,9.12
12.844,9.78
12.848,9.788
12.852,9.536
12.856,9.416
12.86,8.976
12.864,8.148
12.868,7.808
12.872,7.944
12.876,8.152
12.88,8.044
12.884,8.008
12.888,8.256
12.892,8.348
12.896,8.116
12.9,7.972
12.904,8.128
12.908,8.328
12.912,8.14
12.916,8.004
12.92,8.088
12.924,8.296
12.928,8.172
12.932,7.992
12.936,8.076
12.94,8.316
12.944,8.272
12.948,8.028
12.952,8.024
12.956,8.3
12.96,8.324
12.964,8.064
12.968,8.076
12.972,8.308
12.976,8.444
12.98,8.252
12.984,8.104
12.988,8.22
12.992,8.344
12.996,8.156
13,8.032
13.004,8.168
13.008,8.408
13.012,8.24
13.016,8.084
13.02,8.236
13.024,8.492
13.028,8.408
13.032,8.192
13.036,8.228
13.04,8.432
13.044,8.468
13.048,8.268
13.052,8.256
13.056,8.392
13.06,8.384
13.064,8.228
13.068,8.2
13.072,8.484
13.076,8.644
13.08,8.424
13.084,8.304
13.088,8.512
13.092,8.78
13.096,8.604
13.1,8.468
13.104,8.616
13.108,8.78
13.112,8.68
13.116,8.508
13.12,8.708
13.124,8.98
13.128,8.888
13.132,8.628
13.136,8.676
13.14,8.956
13.144,8.876
13.148,8.656
13.152,8.664
13.156,8.892
13.16,8.896
13.164,8.576
13.168,8.464
13.172,8.672
13.176,8.656
13.18,8.344
13.184,8.212
13.188,8.38
13.192,8.496
13.196,8.248
13.2,8.08
13.204,8.188
13.208,8.404
13.212,8.204
13.216,8.028
13.22,8.1
13.224,8.312
13.228,8.22
13.232,7.992
13.236,8.04
13.24,8.288
13.244,8.276
13.248,8
13.252,8.044
13.256,8.252
13.26,8.252
13.264,7.984
13.268,7.972
13.272,8.22
13.276,8.324
13.28,8.06
13.284,7.952
13.288,8.192
13.292,8.336
13.296,8.156
13.3,8.004
13.304,8.108
13.308,8.324
13.312,8.172
13.316,7.988
13.32,8.14
13.324,8.388
13.328,8.308
13.332,8.048
13.336,8.092
13.34,8.344
13.344,8.312
13.348,8.064
13.352,8.056
13.356,8.324
13.36,8.372
13.364,8.084
13.368,8.032
13.372,8.268
13.376,8.372
13.38,8.132
13.384,8.012
13.388,8.252
13.392,8.4
13.396,8.168
13.4,8.012
13.404,8.192
13.408,8.4
13.412,8.22
13.416,8.012
13.42,8.096
13.424,8.356
13.428,8.288
13.432,8.06
13.436,8.116
13.44,8.368
13.444,8.288
13.448,8.068
13.452,8.04
13.456,8.292
13.46,8.3
13.464,8.052
13.468,8.024
13.472,8.22
13.476,8.308
13.48,8.052
13.484,7.996
13.488,8.228
13.492,8.368
13.496,8.168
13.5,7.976
13.504,8.096
13.508,8.28
13.512,8.172
13.516,8.008
13.52,8.092
13.524,8.288
13.528,8.208
13.532,7.984
13.536,8.06
13.54,8.3
13.544,8.26
13.548,7.992
13.552,8.008
13.556,8.268
13.56,8.292
13.564,7.984
13.568,8.008
13.572,8.22
13.576,8.34
13.58,8.08
13.584,7.988
13.588,8.192
13.592,8.348
13.596,8.116
13.6,7.952
13.604,8.128
13.608,8.364
13.612,8.224
13.616,8.076
13.62,8.152
13.624,8.416
13.628,8.348
13.632,8.168
13.636,8.268
13.64,8.532
13.644,8.504
13.648,8.224
13.652,8.168
13.656,8.44
13.66,8.404
13.664,8.128
13.668,8.032
13.672,8.196
13.676,8.284
13.68,8.028
13.684,7.944
13.688,8.156
13.692,8.32
13.696,8.096
13.7,7.964
13.704,8.1
13.708,8.196
13.712,7.888
13.716,7.836
13.72,8.128
13.724,8.688
13.728,9.14
13.732,9.632
13.736,9.9
13.74,9.844
13.744,9.508
13.748,8.804
13.752,8.116
13.756,8
13.76,8.052
13.764,7.948
13.768,8
13.772,8.232
13.776,8.32
13.78,8.108
13.784,8.052
13.788,8.264
13.792,8.38
13.796,8.2
13.8,8
13.804,8.1
13.808,8.248
13.812,8.18
13.816,8.028
13.82,8.112
13.824,8.304
13.828,8.208
13.832,7.992
13.836,8.036
13.84,8.28
13.844,8.232
13.848,8.06
13.852,8.044
13.856,8.28
13.86,8.328
13.864,8.084
13.868,8.092
13.872,8.284
13.876,8.352
13.88,8.132
13.884,8.048
13.888,8.22
13.892,8.392
13.896,8.192
13.9,8.032
13.904,8.232
13.908,8.5
13.912,8.4
13.916,8.184
13.92,8.18
13.924,8.404
13.928,8.328
13.932,8.14
13.936,8.232
13.94,8.54
13.944,8.472
13.948,8.296
13.952,8.324
13.956,8.596
13.96,8.616
13.964,8.4
13.968,8.412
13.972,8.672
13.976,8.744
13.98,8.6
13.984,8.508
13.988,8.66
13.992,8.88
13.996,8.72
14,8.692
14.004,8.808
14.008,8.992
14.012,8.844
14.016,8.76
14.02,8.896
14.024,9.12
14.028,8.976
14.032,8.74
14.036,8.816
14.04,8.984
14.044,8.916
14.048,8.66
14.052,8.608
14.056,8.82
14.06,8.784
14.064,8.532
14.068,8.412
14.072,8.58
14.076,8.656
14.08,8.392
14.084,8.224
14.088,8.36
14.092,8.468
14.096,8.224
14.1,8.08
14.104,8.252
14.108,8.412
14.112,8.252
14.116,8.048
14.12,8.128
14.124,8.352
14.128,8.292
14.132,8.1
14.136,8.116
14.14,8.352
14.144,8.28
14.148,8.04
14.152,8.028
14.156,8.232
14.16,8.24
14.164,8.036
14.168,7.968
14.172,8.216
14.176,8.304
14.18,8.18
14.184,8.128
14.188,8.3
14.192,8.364
14.196,8.188
14.2,8.048
14.204,8.144
14.208,8.396
14.212,8.232
14.216,8.06
14.22,8.176
14.224,8.432
14.228,8.332
14.232,8.132
14.236,8.124
14.24,8.384
14.244,8.316
14.248,8.052
14.252,8.032
14.256,8.316
14.26,8.328
14.264,8.092
14.268,8.04
14.272,8.264
14.276,8.312
14.28,8.112
14.284,8.032
14.288,8.228
14.292,8.38
14.296,8.112
14.3,7.984
14.304,8.128
14.308,8.292
14.312,8.132
14.316,7.992
14.32,8.14
14.324,8.308
14.328,8.244
14.332,8.052
14.336,8.02
14.34,8.3
14.344,8.324
14.348,8.06
14.352,8.116
14.356,8.3
14.36,8.296
14.364,8.072
14.368,8.024
14.372,8.208
14.376,8.344
14.38,8.164
14.384,7.944
14.388,8.128
14.392,8.304
14.396,8.084
14.4,8
14.404,8.076
14.408,8.38
14.412,8.228
14.416,8.044
14.42,8.192
14.424,8.288
14.428,8.128
14.432,7.968
14.436,8.112
14.44,8.32
14.444,8.292
14.448,8.04
14.452,8
14.456,8.276
14.46,8.36
14.464,8.14
14.468,8.092
14.472,8.312
14.476,8.376
14.48,8.204
14.484,8.204
14.488,8.344
14.492,8.524
14.496,8.34
14.5,8.168
14.504,8.248
14.508,8.464
14.512,8.296
14.516,8.08
14.52,8.188
14.524,8.36
14.528,8.228
14.532,8
14.536,8.024
14.54,8.276
14.544,8.204
14.548,8.012
14.552,7.984
14.556,8.228
14.56,8.136
14.564,7.804
14.568,7.752
14.572,8.152
14.576,8.604
14.58,8.872
14.584,9.564
14.588,10.332
14.592,10.36
14.596,9.736
14.6,9.264
14.604,8.72
14.608,8.208
14.612,7.888
14.616,7.7
14.62,7.864
14.624,8.2
14.628,8.228
14.632,8.036
14.636,8.036
14.64,8.348
14.644,8.296
14.648,8.036
14.652,7.952
14.656,8.264
14.66,8.328
14.664,8.112
14.668,7.988
14.672,8.148
14.676,8.292
14.68,8.12
14.684,8.016
14.688,8.18
14.692,8.264
14.696,8.04
14.7,7.948
14.704,8.096
14.708,8.364
14.712,8.216
14.716,8.04
14.72,8.092
14.724,8.3
14.728,8.312
14.732,8.096
14.736,8.12
14.74,8.352
14.744,8.296
14.748,8.112
14.752,8.1
14.756,8.28
14.76,8.34
14.764,8.108
14.768,8.08
14.772,8.28
14.776,8.44
14.78,8.28
14.784,8.164
14.788,8.356
14.792,8.52
14.796,8.336
14.8,8.228
14.804,8.412
14.808,8.604
14.812,8.484
14.816,8.312
14.82,8.424
14.824,8.664
14.828,8.608
14.832,8.444
14.836,8.504
14.84,8.792
14.844,8.828
14.848,8.636
14.852,8.636
14.856,8.828
14.86,8.848
14.864,8.668
14.868,8.652
14.872,8.908
14.876,8.98
14.88,8.752
14.884,8.684
14.888,8.912
14.892,9.06
14.896,8.808
14.9,8.628
14.904,8.744
14.908,8.94
14.912,8.732
14.916,8.476
14.92,8.556
14.924,8.708
14.928,8.6
14.932,8.292
14.936,8.196
14.94,8.352
14.944,8.32
14.948,8.112
14.952,8.108
14.956,8.292
14.96,8.288
14.964,8.028
14.968,7.964
14.972,8.192
14.976,8.284
14.98,8.088
14.984,8
14.988,8.152
14.992,8.288
14.996,8.108
15,8.012
15.004,8.096
15.008,8.32
15.012,8.188
15.016,8.06
15.02,8.044
15.024,8.284
15.028,8.212
15.032,8.04
15.036,8.052
15.04,8.288
15.044,8.252
15.048,8.056
15.052,8.032
15.056,8.248
15.06,8.336
15.064,8.104
15.068,8.02
15.072,8.208
15.076,8.32
15.08,8.116
15.084,8.056
15.088,8.24
15.092,8.36
15.096,8.14
15.1,8.02
15.104,8.168
15.108,8.316
15.112,8.192
15.116,7.996
15.12,8.072
15.124,8.324
15.128,8.248
15.132,8.108
15.136,8.076
15.14,8.288
15.144,8.264
15.148,8.012
15.152,8.064
15.156,8.216
15.16,8.176
15.164,7.952
15.168,7.944
15.172,8.164
15.176,8.272
15.18,8.096
15.184,8.016
15.188,8.176
15.192,8.308
15.196,8.092
15.2,7.912
15.204,8.052
15.208,8.352
15.212,8.252
15.216,7.992
15.22,7.968
15.224,8.208
15.228,8.176
15.232,7.948
15.236,7.968
15.24,8.24
15.244,8.228
15.248,8.016
15.252,7.96
15.256,8.212
15.26,8.268
15.264,8.04
15.268,8
15.272,8.212
15.276,8.292
15.28,8.024
15.284,7.888
15.288,8.06
15.292,8.272
15.296,8.092
15.3,7.936
15.304,8.08
15.308,8.372
15.312,8.284
15.316,8.108
15.32,8.22
15.324,8.412
15.328,8.36
15.332,8.128
15.336,8.172
15.34,8.388
15.344,8.396
15.348,8.14
15.352,8.128
15.356,8.416
15.36,8.464
15.364,8.076
15.368,7.996
15.372,8.18
15.376,8.28
15.38,8.08
15.384,7.992
15.388,8.112
15.392,8.232
15.396,8.024
15.4,7.88
15.404,7.964
15.408,8.172
15.412,7.984
15.416,7.844
15.42,7.988
15.424,8.56
15.428,9.14
15.432,9.648
15.436,9.92
15.44,9.872
15.444,9.516
15.448,8.716
15.452,8.028
15.456,7.912
15.46,7.924
15.464,7.864
15.468,7.936
15.472,8.268
15.476,8.492
15.48,8.208
15.484,7.988
15.488,8.084
15.492,8.264
15.496,8.108
15.5,7.936
15.504,8.048
15.508,8.248
15.512,8.124
15.516,7.928
15.52,7.988
15.524,8.224
15.528,8.136
15.532,7.9
15.536,8.028
15.54,8.32
15.544,8.336
15.548,8.044
15.552,7.996
15.556,8.216
15.56,8.28
15.564,8.072
15.568,8.012
15.572,8.228
15.576,8.344
15.58,8.128
15.584,7.964
15.588,8.132
15.592,8.34
15.596,8.144
15.6,8.016
15.604,8.152
15.608,8.384
15.612,8.228
15.616,8.02
15.62,8.136
15.624,8.424
15.628,8.372
15.632,8.076
15.636,8.108
15.64,8.408
15.644,8.444
15.648,8.156
15.652,8.144
15.656,8.408
15.66,8.52
15.664,8.312
15.668,8.248
15.672,8.48
15.676,8.672
15.68,8.44
15.684,8.368
15.688,8.58
15.692,8.868
15.696,8.68
15.7,8.54
15.704,8.672
15.708,8.868
15.712,8.744
15.716,8.516
15.72,8.668
15.724,8.972
15.728,8.944
15.732,8.684
15.736,8.692
15.74,8.916
15.744,8.888
15.748,8.6
15.752,8.528
15.756,8.744
15.76,8.78
15.764,8.428
15.768,8.272
15.772,8.412
15.776,8.508
15.78,8.208
15.784,8.036
15.788,8.252
15.792,8.488
15.796,8.264
15.8,8.04
15.804,8.136
15.808,8.324
15.812,8.168
15.816,7.872
15.82,7.952
15.824,8.22
15.828,8.196
15.832,7.928
15.836,7.984
15.84,8.248
15.844,8.304
15.848,7.988
15.852,7.924
15.856,8.232
15.86,8.308
15.864,8.028
15.868,7.868
15.872,8.152
15.876,8.312
15.88,8.068
15.884,7.86
15.888,8.092
15.892,8.38
15.896,8.148
15.9,7.896
15.904,8.064
15.908,8.38
15.912,8.18
15.916,7.936
15.92,7.984
15.924,8.308
15.928,8.26
15.932,7.968
15.936,7.964
15.94,8.252
15.944,8.308
15.948,8.116
15.952,7.996
15.956,8.204
15.96,8.268
15.964,8.024
15.968,7.956
15.972,8.212
15.976,8.328
15.98,8.1
15.984,7.944
15.988,8.192
15.992,8.36
15.996,8.128
16,7.868
16.004,8.064
16.008,8.292
16.012,8.168
16.016,7.908
16.02,8.024
16.024,8.264
16.028,8.156
16.032,7.844
16.036,7.928
16.04,8.252
16.044,8.256
16.048,7.988
16.052,7.924
16.056,8.16
16.06,8.304
16.064,8.032
16.068,7.892
16.072,8.196
16.076,8.324
16.08,8.052
16.084,7.868
16.088,8.092
16.092,8.308
16.096,8.096
16.1,7.808
16.104,7.984
16.108,8.256
16.112,8.188
16.116,7.904
16.12,7.952
16.124,8.22
16.128,8.156
16.132,7.932
16.136,7.96
16.14,8.256
16.144,8.308
16.148,8.02
16.152,7.924
16.156,8.12
16.16,8.28
16.164,8.076
16.168,7.98
16.172,8.276
16.176,8.472
16.18,8.132
16.184,7.912
16.188,8.156
16.192,8.496
16.196,8.356
16.2,8.164
16.204,8.188
16.208,8.384
16.212,8.216
16.216,8.028
16.22,8.124
16.224,8.42
16.228,8.376
16.232,8.056
16.236,8.032
16.24,8.268
16.244,8.252
16.248,7.964
16.252,7.872
16.256,8.132
16.26,8.264
16.264,7.976
16.268,7.78
16.272,7.956
16.276,8.2
16.28,8.088
16.284,8.136
16.288,8.752
16.292,9.644
16.296,9.904
16.3,9.584
16.304,9.444
16.308,9.308
16.312,8.544
16.316,7.768
16.32,7.66
16.324,8.036
16.328,8.068
16.332,7.904
16.336,7.984
16.34,8.292
16.344,8.22
16.348,7.92
16.352,7.82
16.356,8.104
16.36,8.196
16.364,7.912
16.368,7.852
16.372,8.08
16.376,8.284
16.38,8.008
16.384,7.852
16.388,8.032
16.392,8.288
16.396,8.088
16.4,7.88
16.404,7.996
16.408,8.292
16.412,8.152
16.416,7.912
16.42,8.004
16.424,8.296
16.428,8.24
16.432,7.976
16.436,7.932
16.44,8.22
16.444,8.3
16.448,8.024
16.452,7.976
16.456,8.236
16.46,8.316
16.464,8.036
16.468,7.92
16.472,8.188
16.476,8.392
16.48,8.156
16.484,7.98
16.488,8.188
16.492,8.46
16.496,8.252
16.5,8.068
16.504,8.196
16.508,8.516
16.512,8.44
16.516,8.184
16.52,8.316
16.524,8.704
16.528,8.64
16.532,8.368
16.536,8.408
16.54,8.72
16.544,8.704
16.548,8.38
16.552,8.292
16.556,8.608
16.56,8.744
16.564,8.48
16.568,8.38
16.572,8.628
16.576,8.904
16.58,8.672
16.584,8.504
16.588,8.716
16.592,9
16.596,8.824
16.6,8.588
16.604,8.7
16.608,8.976
16.612,8.816
16.616,8.5
16.62,8.528
16.624,8.776
16.628,8.64
16.632,8.276
16.636,8.22
16.64,8.504
16.644,8.568
16.648,8.232
16.652,8.128
16.656,8.36
16.66,8.456
16.664,8.152
16.668,7.976
16.672,8.212
16.676,8.424
16.68,8.204
16.684,8.032
16.688,8.24
16.692,8.496
16.696,8.236
16.7,7.98
16.704,8.136
16.708,8.444
16.712,8.336
16.716,8.032
16.72,8.068
16.724,8.372
16.728,8.308
16.732,8.044
16.736,8.044
16.74,8.376
16.744,8.392
16.748,8.064
16.752,8.008
16.756,8.312
16.76,8.472
16.764,8.132
16.768,7.964
16.772,8.188
16.776,8.408
16.78,8.18
16.784,7.976
16.788,8.18
16.792,8.444
16.796,8.236
16.8,7.984
16.804,8.088
16.808,8.404
16.812,8.26
16.816,7.992
16.82,8.056
16.824,8.38
16.828,8.348
16.832,8.048
16.836,8.008
16.84,8.312
16.844,8.36
16.848,8.06
16.852,7.976
16.856,8.256
16.86,8.428
16.864,8.108
16.868,7.892
16.872,8.136
16.876,8.384
16.88,8.208
16.884,8.008
16.888,8.188
16.892,8.384
16.896,8.2
16.9,7.98
16.904,8.132
16.908,8.46
16.912,8.304
16.916,7.972
16.92,8.048
16.924,8.372
16.928,8.328
16.932,8
16.936,7.996
16.94,8.324
16.944,8.384
16.948,8.1
16.952,7.976
16.956,8.284
16.96,8.384
16.964,8.064
16.968,7.92
16.972,8.196
16.976,8.412
16.98,8.132
16.984,7.924
16.988,8.132
16.992,8.4
16.996,8.208
17,7.948
17.004,8.084
17.008,8.428
17.012,8.332
17.016,8.1
17.02,8.148
17.024,8.472
17.028,8.456
17.032,8.208
17.036,8.192
17.04,8.52
17.044,8.596
17.048,8.244
17.052,8.096
17.056,8.34
17.06,8.532
17.064,8.212
17.068,8.036
17.072,8.264
17.076,8.38
17.08,8.172
17.084,7.968
17.088,8.112
17.092,8.272
17.096,8.072
17.1,7.868
17.104,8.008
17.108,8.248
17.112,8.056
17.116,7.736
17.12,7.892
17.124,8.36
17.128,8.604
17.132,8.824
17.136,9.492
17.14,10.088
17.144,9.88
17.148,9.26
17.152,8.772
17.156,8.432
17.16,8.088
17.164,7.728
17.168,7.736
17.172,7.988
17.176,8.268
17.18,8.084
17.184,7.988
17.188,8.204
17.192,8.4
17.196,8.192
17.2,7.94
17.204,8.072
17.208,8.32
17.212,8.208
17.216,7.976
17.22,8.072
17.224,8.36
17.228,8.3
17.232,8.02
17.236,8.02
17.24,8.268
17.244,8.364
17.248,8.088
17.252,8.004
17.256,8.264
17.26,8.376
17.264,8.136
17.268,8.02
17.272,8.224
17.276,8.392
17.28,8.18
17.284,8.056
17.288,8.224
17.292,8.448
17.296,8.244
17.3,8.04
17.304,8.184
17.308,8.476
17.312,8.372
17.316,8.18
17.32,8.204
17.324,8.472
17.328,8.408
17.332,8.228
17.336,8.248
17.34,8.492
17.344,8.532
17.348,8.268
17.352,8.248
17.356,8.524
17.36,8.66
17.364,8.4
17.368,8.344
17.372,8.564
17.376,8.764
17.38,8.54
17.384,8.416
17.388,8.592
17.392,8.844
17.396,8.724
17.4,8.528
17.404,8.68
17.408,8.944
17.412,8.816
17.416,8.604
17.42,8.704
17.424,9.012
17.428,8.976
17.432,8.7
17.436,8.728
17.44,9.008
17.444,9.016
17.448,8.728
17.452,8.652
17.456,8.88
17.46,8.9
17.464,8.616
17.468,8.44
17.472,8.628
17.476,8.756
17.48,8.428
17.484,8.24
17.488,8.392
17.492,8.584
17.496,8.384
17.5,8.144
17.504,8.28
17.508,8.516
17.512,8.388
17.516,8.088
17.52,8.136
17.524,8.424
17.528,8.384
17.532,8.116
17.536,8.128
17.54,8.38
17.544,8.412
17.548,8.18
17.552,8.116
17.556,8.36
17.56,8.472
17.564,8.192
17.568,8.076
17.572,8.268
17.576,8.48
17.58,8.248
17.584,8.116
17.588,8.32
17.592,8.572
17.596,8.396
17.6,8.176
17.604,8.224
17.608,8.472
17.612,8.348
17.616,8.124
17.62,8.188
17.624,8.444
17.628,8.432
17.632,8.172
17.636,8.2
17.64,8.448
17.644,8.444
17.648,8.148
17.652,8.064
17.656,8.348
17.66,8.484
17.664,8.188
17.668,8.072
17.672,8.276
17.676,8.472
17.68,8.24
17.684,8.068
17.688,8.252
17.692,8.504
17.696,8.3
17.7,8.068
17.704,8.188
17.708,8.436
17.712,8.328
17.716,8.072
17.72,8.148
17.724,8.396
17.728,8.344
17.732,8.072
17.736,8.092
17.74,8.368
17.744,8.416
17.748,8.144
17.752,8.04
17.756,8.284
17.76,8.46
17.764,8.212
17.768,8.1
17.772,8.252
17.776,8.416
17.78,8.188
17.784,8.008
17.788,8.176
17.792,8.432
17.796,8.224
17.8,8
17.804,8.164
17.808,8.436
17.812,8.288
17.816,8.052
17.82,8.124
17.824,8.38
17.828,8.352
17.832,8.064
17.836,8.084
17.84,8.404
17.844,8.48
17.848,8.228
17.852,8.184
17.856,8.432
17.86,8.62
17.864,8.364
17.868,8.248
17.872,8.456
17.876,8.588
17.88,8.272
17.884,8.112
17.888,8.32
17.892,8.588
17.896,8.368
17.9,8.072
17.904,8.144
17.908,8.436
17.912,8.296
17.916,8.048
17.92,8.08
17.924,8.344
17.928,8.316
17.932,7.984
17.936,7.952
17.94,8.128
17.944,8.172
17.948,8.028
17.952,8.172
17.956,8.852
17.96,9.628
17.964,9.884
17.968,9.776
17.972,9.664
17.976,9.524
17.98,8.764
17.984,7.992
17.988,7.908
17.992,8.148
17.996,8.02
18,7.872
18.004,8.104
18.008,8.42
18.012,8.264
18.016,8.016
18.02,8.056
18.024,8.316
18.028,8.296
18.032,8.004
18.036,8.012
18.04,8.292
18.044,8.36
18.048,8.052
18.052,8.004
18.056,8.24
18.06,8.392
18.064,8.108
18.068,7.996
18.072,8.22
18.076,8.404
18.08,8.168
18.084,8.032
18.088,8.212
18.092,8.42
18.096,8.228
18.1,8
18.104,8.144
18.108,8.436
18.112,8.304
18.116,8.064
18.12,8.144
18.124,8.404
18.128,8.404
18.132,8.156
18.136,8.132
18.14,8.412
18.144,8.444
18.148,8.196
18.152,8.16
18.156,8.424
18.16,8.572
18.164,8.308
18.168,8.188
18.172,8.42
18.176,8.652
18.18,8.428
18.184,8.272
18.188,8.448
18.192,8.704
18.196,8.54
18.2,8.348
18.204,8.496
18.208,8.804
18.212,8.724
18.216,8.504
18.22,8.584
18.224,8.86
18.228,8.84
18.232,8.608
18.236,8.644
18.24,8.944
18.244,8.952
18.248,8.736
18.252,8.676
18.256,8.96
18.26,9.088
18.264,8.792
18.268,8.656
18.272,8.832
18.276,8.98
18.28,8.736
18.284,8.512
18.288,8.676
18.292,8.832
18.296,8.604
18.3,8.36
18.304,8.416
18.308,8.64
18.312,8.468
18.316,8.168
18.32,8.208
18.324,8.464
18.328,8.396
18.332,8.14
18.336,8.12
18.34,8.396
18.344,8.412
18.348,8.116
18.352,8.02
18.356,8.276
18.36,8.408
18.364,8.152
18.368,8.064
18.372,8.244
18.376,8.412
18.38,8.172
18.384,8.016
18.388,8.224
18.392,8.484
18.396,8.264
18.4,8.044
18.404,8.156
18.408,8.436
18.412,8.304
18.416,8.072
18.42,8.112
18.424,8.42
18.428,8.384
18.432,8.096
18.436,8.112
18.44,8.368
18.444,8.42
18.448,8.16
18.452,8.108
18.456,8.36
18.46,8.492
18.464,8.184
18.468,8.06
18.472,8.284
18.476,8.472
18.48,8.22
18.484,8.06
18.488,8.228
18.492,8.472
18.496,8.272
18.5,8.048
18.504,8.172
18.508,8.392
18.512,8.28
18.516,8.044
18.52,8.124
18.524,8.396
18.528,8.36
18.532,8.048
18.536,8.028
18.54,8.292
18.544,8.34
18.548,8.1
18.552,8.028
18.556,8.288
18.56,8.42
18.564,8.16
18.568,8.02
18.572,8.184
18.576,8.356
18.58,8.144
18.584,7.992
18.588,8.16
18.592,8.352
18.596,8.176
18.6,7.984
18.604,8.104
18.608,8.36
18.612,8.26
18.616,8.004
18.62,8.056
18.624,8.316
18.628,8.308
18.632,8.04
18.636,8.032
18.64,8.328
18.644,8.392
18.648,8.144
18.652,8.108
18.656,8.38
18.66,8.496
18.664,8.212
18.668,8.112
18.672,8.368
18.676,8.592
18.68,8.328
18.684,8.176
18.688,8.3
18.692,8.492
18.696,8.256
18.7,8.08
18.704,8.204
18.708,8.472
18.712,8.364
18.716,8.032
18.72,8.088
18.724,8.34
18.728,8.24
18.732,7.964
18.736,7.948
18.74,8.224
18.744,8.292
18.748,7.988
18.752,7.828
18.756,8.008
18.76,8.196
18.764,8.112
18.768,8.344
18.772,9.14
18.776,9.98
18.78,9.844
18.784,9.376
18.788,9.252
18.792,9
18.796,8.216
18.8,7.704
18.804,7.804
18.808,8.148
18.812,8.14
18.816,7.98
18.82,8.056
18.824,8.312
18.828,8.268
18.832,7.984
18.836,8
18.84,8.272
18.844,8.284
18.848,8.024
18.852,7.944
18.856,8.2
18.86,8.336
18.864,8.052
18.868,7.952
18.872,8.132
18.876,8.324
18.88,8.128
18.884,7.98
18.888,8.116
18.892,8.328
18.896,8.16
18.9,7.964
18.904,8.064
18.908,8.34
18.912,8.224
18.916,7.976
18.92,8.052
18.924,8.336
18.928,8.284
18.932,8.02
18.936,8.02
18.94,8.316
18.944,8.384
18.948,8.132
18.952,8.04
18.956,8.28
18.96,8.436
18.964,8.216
18.968,8.104
18.972,8.308
18.976,8.492
18.98,8.284
18.984,8.12
18.988,8.308
18.992,8.544
18.996,8.392
19,8.224
19.004,8.348
19.008,8.64
19.012,8.564
19.016,8.332
19.02,8.428
19.024,8.704
19.028,8.716
19.032,8.48
19.036,8.532
19.04,8.82
19.044,8.9
19.048,8.668
19.052,8.624
19.056,8.868
19.06,8.988
19.064,8.732
19.068,8.608
19.072,8.804
19.076,8.992
19.08,8.78
19.084,8.604
19.088,8.732
19.092,8.928
19.096,8.688
19.1,8.392
19.104,8.448
19.108,8.66
19.112,8.508
19.116,8.28
19.12,8.256
19.124,8.46
19.128,8.388
19.132,8.136
19.136,8.076
19.14,8.324
19.144,8.344
19.148,8.092
19.152,8
19.156,8.216
19.16,8.312
19.164,8.04
19.168,7.972
19.172,8.176
19.176,8.336
19.18,8.104
19.184,7.936
19.188,8.08
19.192,8.304
19.196,8.152
19.2,7.96
19.204,8.084
19.208,8.356
19.212,8.248
19.216,7.992
19.22,8.06
19.224,8.316
19.228,8.288
19.232,7.976
19.236,7.976
19.24,8.26
19.244,8.308
19.248,8.072
19.252,8
19.256,8.26
19.26,8.376
19.264,8.136
19.268,8.012
19.272,8.216
19.276,8.356
19.28,8.124
19.284,7.96
19.288,8.124
19.292,8.388
19.296,8.236
19.3,7.992
19.304,8.1
19.308,8.364
19.312,8.244
19.316,7.984
19.32,8.052
19.324,8.3
19.328,8.264
19.332,8.024
19.336,7.996
19.34,8.248
19.344,8.232
19.348,8
19.352,8.024
19.356,8.256
19.36,8.34
19.364,8.104
19.368,7.976
19.372,8.144
19.376,8.344
19.38,8.112
19.384,7.932
19.388,8.072
19.392,8.3
19.396,8.148
19.4,7.96
19.404,8.072
19.408,8.352
19.412,8.24
19.416,8.02
19.42,7.988
19.424,8.192
19.428,8.136
19.432,7.88
19.436,7.936
19.44,8.264
19.444,8.324
19.448,8.06
19.452,7.976
19.456,8.184
19.46,8.312
19.464,8.084
19.468,8.008
19.472,8.224
19.476,8.436
19.48,8.252
19.484,8.172
19.488,8.276
19.492,8.432
19.496,8.224
19.5,8.06
19.504,8.1
19.508,8.308
19.512,8.208
19.516,7.924
19.52,7.96
19.524,8.212
19.528,8.18
19.532,7.904
19.536,7.916
19.54,8.132
19.544,8.104
19.548,7.82
19.552,7.736
19.556,7.976
19.56,8.168
19.564,8.04
19.568,8.192
19.572,8.864
19.576,9.748
19.58,9.92
19.584,9.568
19.588,9.376
19.592,9.216
19.596,8.356
19.6,7.64
19.604,7.672
19.608,8.032
19.612,7.98
19.616,7.792
19.62,7.856
19.624,8.144
19.628,8.132
19.632,7.856
19.636,7.852
19.64,8.148
19.644,8.26
19.648,8.024
19.652,7.936
19.656,8.152
19.66,8.256
19.664,7.976
19.668,7.908
19.672,8.068
19.676,8.164
19.68,7.92
19.684,7.756
19.688,7.944
19.692,8.228
19.696,8.164
19.7,7.976
19.704,8.02
19.708,8.22
19.712,8.112
19.716,7.908
19.72,7.984
19.724,8.24
19.728,8.212
19.732,8.036
19.736,8.028
19.74,8.268
19.744,8.308
19.748,8.108
19.752,8.064
19.756,8.3
19.76,8.44
19.764,8.14
19.768,8
19.772,8.1
19.776,8.268
19.78,8.184
19.784,8.092
19.788,8.284
19.792,8.324
19.796,8.12
19.8,7.984
19.804,8.216
19.808,8.468
19.812,8.404
19.816,8.244
19.82,8.408
19.824,8.728
19.828,8.752
19.832,8.492
19.836,8.424
19.84,8.812
19.844,8.892
19.848,8.624
19.852,8.464
19.856,8.652
19.86,8.832
19.864,8.688
19.868,8.644
19.872,8.764
19.876,8.872
19.88,8.692
19.884,8.504
19.888,8.68
19.892,8.864
19.896,8.632
19.9,8.304
19.904,8.34
19.908,8.576
19.912,8.432
19.916,8.16
19.92,8.132
19.924,8.44
19.928,8.368
19.932,8.044
19.936,7.964
19.94,8.196
19.944,8.312
19.948,8.092
19.952,7.98
19.956,8.188
19.96,8.28
19.964,7.964
19.968,7.856
19.972,8.096
19.976,8.292
19.98,8.048
19.984,7.892
19.988,8.008
19.992,8.22
19.996,8.068
20,7.884
20.004,8.02
20.008,8.216
20.012,8.076
20.016,7.936
20.02,8.072
20.024,8.308
20.028,8.144
20.032,7.884
20.036,7.98
20.04,8.304
20.044,8.28
20.048,7.956
20.052,7.884
20.056,8.044
20.06,8.236
20.064,8.012
20.068,7.888
20.072,8.128
20.076,8.384
20.08,8.168
20.084,7.836
20.088,7.912
20.092,8.16
20.096,8.008
20.1,7.864
20.104,8.02
20.108,8.476
20.112,8.496
20.116,8.004
20.12,7.852
20.124,8.204
20.128,8.324
20.132,7.86
20.136,7.708
20.14,8.108
20.144,8.34
20.148,8.124
20.152,8.02
20.156,8.416
20.16,8.492
20.164,8.108
20.168,7.936
20.172,7.968
20.176,8.124
20.18,7.988
20.184,7.892
20.188,7.864
20.192,8.264
20.196,8.464
20.2,8.264
20.204,7.988
20.208,7.756
20.212,7.772
20.216,7.724
20.22,7.784
20.224,8.132
20.228,8.556
20.232,8.648
20.236,8.26
20.24,7.892
20.244,7.884
20.248,7.68
20.252,7.692
20.256,7.944
20.26,8.28
20.264,8.268
20.268,8.164
20.272,8.192
20.276,8.276
20.28,8.116
20.284,8.104
20.288,8.38
20.292,8.604
20.296,8.092
20.3,7.848
20.304,7.816
20.308,8.196
20.312,8.304
20.316,8.132
20.32,7.94
20.324,7.924
20.328,7.888
20.332,7.656
20.336,7.656
20.34,7.968
20.344,8.108
20.348,7.976
20.352,8.136
20.356,8.3
20.36,8.168
20.364,7.8
20.368,7.948
20.372,8.744
20.376,9.66
20.38,9.624
20.384,9.104
20.388,9.112
20.392,9.312
20.396,8.472
20.4,7.368
20.404,7.36
20.408,8.144
20.412,8.3
20.416,7.992
20.42,7.68
20.424,7.78
20.428,7.688
20.432,7.736
20.436,8.196
20.44,8.48
20.444,7.988
20.448,7.38
20.452,7.452
20.456,7.9
20.46,8.168
20.464,7.876
20.468,7.768
20.472,8.016
20.476,8.02
20.48,7.604
20.484,7.504
20.488,7.756
20.492,8.12
20.496,8.16
20.5,8.076
20.504,8.08
20.508,8.08
20.512,7.892
20.516,7.648
20.52,7.556
20.524,7.988
20.528,8.096
20.532,7.836
20.536,7.76
20.54,8.092
20.544,8.252
20.548,8.048
20.552,7.872
20.556,8.136
20.56,8.304
20.564,8.108
20.568,7.672
20.572,7.772
20.576,8.104
20.58,8.028
20.584,8.128
20.588,8.428
20.592,8.416
20.596,8.152
20.6,8.092
20.604,8.152
20.608,8.092
20.612,8.096
20.616,8.064
20.62,8.272
20.624,8.756
20.628,8.9
20.632,8.456
20.636,8.18
20.64,8.388
20.644,8.484
20.648,8.332
20.652,8.348
20.656,8.628
20.66,8.828
20.664,8.6
20.668,8.472
20.672,8.68
20.676,8.828
20.68,8.632
20.684,8.408
20.688,8.508
20.692,8.696
20.696,8.5
20.7,8.232
20.704,8.244
20.708,8.488
20.712,8.316
20.716,8.024
20.72,8.048
20.724,8.296
20.728,8.24
20.732,7.944
20.736,7.88
20.74,8.108
20.744,8.192
20.748,7.928
20.752,7.82
20.756,8.016
20.76,8.14
20.764,7.912
20.768,7.788
20.772,7.956
20.776,8.152
20.78,7.932
20.784,7.76
20.788,7.924
20.792,8.208
20.796,8.04
20.8,7.796
20.804,7.88
20.808,8.132
20.812,8.072
20.816,7.852
20.82,7.932
20.824,8.2
20.828,8.1
20.832,7.832
20.836,7.8
20.84,8.1
20.844,8.176
20.848,7.932
20.852,7.888
20.856,8.128
20.86,8.276
20.864,8.044
20.868,7.904
20.872,8.084
20.876,8.296
20.88,8.104
20.884,7.92
20.888,8.06
20.892,8.288
20.896,8.144
20.9,7.928
20.904,8.012
20.908,8.264
20.912,8.192
20.916,7.932
20.92,7.952
20.924,8.216
20.928,8.216
20.932,7.964
20.936,7.924
20.94,8.2
20.944,8.264
20.948,7.984
20.952,7.888
20.956,8.124
20.96,8.296
20.964,8.056
20.968,7.888
20.972,8.096
20.976,8.296
20.98,8.088
20.984,7.912
20.988,8.056
20.992,8.292
20.996,8.124
21,7.916
21.004,7.992
21.008,8.272
21.012,8.18
21.016,7.944
21.02,7.956
21.024,8.24
21.028,8.26
21.032,7.968
21.036,7.968
21.04,8.208
21.044,8.3
21.048,8.06
21.052,8.004
21.056,8.252
21.06,8.404
21.064,8.152
21.068,8.056
21.072,8.3
21.076,8.516
21.08,8.324
21.084,8.064
21.088,8.18
21.092,8.384
21.096,8.268
21.1,8.032
21.104,8.04
21.108,8.344
21.112,8.22
21.116,7.972
21.12,7.968
21.124,8.2
21.128,8.196
21.132,7.916
21.136,7.916
21.14,8.18
21.144,8.192
21.148,7.852
21.152,7.728
21.156,8.04
21.16,8.3
21.164,8.272
21.168,8.64
21.172,9.476
21.176,9.96
21.18,9.528
21.184,9.096
21.188,8.892
21.192,8.552
21.196,8.024
21.2,7.696
21.204,7.848
21.208,8.208
21.212,8.208
21.216,7.984
21.22,8.008
21.224,8.26
21.228,8.24
21.232,7.98
21.236,7.912
21.24,8.2
21.244,8.264
21.248,7.956
21.252,7.86
21.256,8.092
21.26,8.268
21.264,8.044
21.268,7.892
21.272,8.108
21.276,8.316
21.28,8.072
21.284,7.864
21.288,7.984
21.292,8.264
21.296,8.136
21.3,7.888
21.304,8.016
21.308,8.312
21.312,8.28
21.316,8
21.32,7.984
21.324,8.244
21.328,8.268
21.332,8.024
21.336,7.972
21.34,8.244
21.344,8.328
21.348,8.052
21.352,7.952
21.356,8.216
21.36,8.396
21.364,8.176
21.368,8.032
21.372,8.208
21.376,8.444
21.38,8.232
21.384,8.1
21.388,8.276
21.392,8.544
21.396,8.428
21.4,8.204
21.404,8.296
21.408,8.604
21.412,8.572
21.416,8.348
21.42,8.4
21.424,8.7
21.428,8.728
21.432,8.548
21.436,8.524
21.44,8.82
21.444,8.932
21.448,8.644
21.452,8.584
21.456,8.86
21.46,9.028
21.464,8.804
21.468,8.672
21.472,8.828
21.476,9.032
21.48,8.784
21.484,8.548
21.488,8.592
21.492,8.836
21.496,8.648
21.5,8.384
21.504,8.408
21.508,8.616
21.512,8.492
21.516,8.2
21.52,8.196
21.524,8.456
21.528,8.404
21.532,8.088
21.536,7.984
21.54,8.212
21.544,8.292
21.548,8.028
21.552,7.924
21.556,8.14
21.56,8.3
21.564,8.056
21.568,7.916
21.572,8.08
21.576,8.276
21.58,8.096
21.584,7.944
21.588,8.06
21.592,8.288
21.596,8.156
21.6,7.88
21.604,8
21.608,8.284
21.612,8.204
21.616,7.96
21.62,7.988
21.624,8.256
21.628,8.26
21.632,7.988
21.636,7.94
21.64,8.216
21.644,8.288
21.648,8.048
21.652,7.96
21.656,8.204
21.66,8.292
21.664,8.056
21.668,7.944
21.672,8.156
21.676,8.356
21.68,8.168
21.684,7.992
21.688,8.168
21.692,8.412
21.696,8.228
21.7,7.932
21.704,7.976
21.708,8.288
21.712,8.24
21.716,7.932
21.72,7.936
21.724,8.252
21.728,8.252
21.732,7.964
21.736,7.924
21.74,8.184
21.744,8.296
21.748,8.016
21.752,7.924
21.756,8.124
21.76,8.272
21.764,8.044
21.768,7.896
21.772,8.048
21.776,8.26
21.78,8.048
21.784,7.952
21.788,8.096
21.792,8.312
21.796,8.14
21.8,7.892
21.804,7.964
21.808,8.224
21.812,8.18
21.816,7.92
21.82,7.948
21.824,8.216
21.828,8.216
21.832,7.952
21.836,7.908
21.84,8.192
21.844,8.296
21.848,8.028
21.852,7.892
21.856,8.124
21.86,8.328
21.864,8.14
21.868,7.988
21.872,8.156
21.876,8.368
21.88,8.224
21.884,8.092
21.888,8.232
21.892,8.5
21.896,8.336
21.9,8.052
21.904,8.08
21.908,8.36
21.912,8.284
21.916,8.032
21.92,8.056
21.924,8.256
21.928,8.268
21.932,7.96
21.936,7.868
21.94,8.116
21.944,8.22
21.948,7.952
21.952,7.876
21.956,8.052
21.96,8.108
21.964,7.8
21.968,7.72
21.972,8.072
21.976,8.56
21.98,8.848
21.984,9.36
21.988,9.816
21.992,9.864
21.996,9.444
22,8.824
22.004,8.256
22.008,8.04
22.012,7.924
22.016,7.756
22.02,7.832
22.024,8.204
22.028,8.264
22.032,8.024
22.036,7.956
22.04,8.212
22.044,8.268
22.048,8.004
22.052,7.856
22.056,8.052
22.06,8.184
22.064,7.972
22.068,7.888
22.072,8.06
22.076,8.252
22.08,8.012
22.084,7.844
22.088,8.004
22.092,8.236
22.096,8.136
22.1,7.888
22.104,7.972
22.108,8.236
22.112,8.176
22.116,7.928
22.12,7.968
22.124,8.22
22.128,8.248
22.132,7.972
22.136,7.948
22.14,8.236
22.144,8.332
22.148,8.064
22.152,7.98
22.156,8.192
22.16,8.388
22.164,8.172
22.168,8.016
22.172,8.192
22.176,8.448
22.18,8.276
22.184,8.08
22.188,8.232
22.192,8.484
22.196,8.388
22.2,8.176
22.204,8.272
22.208,8.56
22.212,8.5
22.216,8.28
22.22,8.316
22.224,8.612
22.228,8.668
22.232,8.416
22.236,8.412
22.24,8.708
22.244,8.828
22.248,8.6
22.252,8.524
22.256,8.796
22.26,8.976
22.264,8.728
22.268,8.624
22.272,8.828
22.276,9.028
22.28,8.876
22.284,8.636
22.288,8.768
22.292,9.008
22.296,8.844
22.3,8.54
22.304,8.572
22.308,8.776
22.312,8.68
22.316,8.368
22.32,8.316
22.324,8.536
22.328,8.516
22.332,8.212
22.336,8.116
22.34,8.348
22.344,8.392
22.348,8.112
22.352,8.064
22.356,8.28
22.36,8.392
22.364,8.08
22.368,7.896
22.372,8.076
22.376,8.308
22.38,8.108
22.384,7.912
22.388,8.056
22.392,8.272
22.396,8.188
22.4,7.956
22.404,8.028
22.408,8.276
22.412,8.196
22.416,7.96
22.42,8
22.424,8.288
22.428,8.316
22.432,8.056
22.436,8.004
22.44,8.204
22.444,8.284
22.448,8.044
22.452,7.968
22.456,8.172
22.46,8.344
22.464,8.112
22.468,7.968
22.472,8.128
22.476,8.356
22.48,8.16
22.484,7.984
22.488,8.12
22.492,8.332
22.496,8.204
22.5,7.98
22.504,8.052
22.508,8.324
22.512,8.26
22.516,7.996
22.52,7.984
22.524,8.276
22.528,8.304
22.532,8.016
22.536,7.972
22.54,8.232
22.544,8.328
22.548,8.048
22.552,7.952
22.556,8.184
22.56,8.368
22.564,8.144
22.568,7.996
22.572,8.2
22.576,8.332
22.58,8.04
22.584,7.76
22.588,7.888
22.592,8.152
22.596,8.052
22.6,7.836
22.604,7.928
22.608,8.212
22.612,8.196
22.616,7.928
22.62,7.952
22.624,8.212
22.628,8.244
22.632,7.992
22.636,7.964
22.64,8.196
22.644,8.292
22.648,8.028
22.652,7.916
22.656,8.12
22.66,8.26
22.664,8.028
22.668,7.872
22.672,8.06
22.676,8.272
22.68,8.12
22.684,7.908
22.688,8.04
22.692,8.264
22.696,8.208
22.7,7.988
22.704,8.084
22.708,8.368
22.712,8.332
22.716,8.108
22.72,8.112
22.724,8.404
22.728,8.452
22.732,8.192
22.736,8.092
22.74,8.324
22.744,8.396
22.748,8.068
22.752,7.988
22.756,8.212
22.76,8.34
22.764,8.12
22.768,7.956
22.772,8.088
22.776,8.288
22.78,8.076
22.784,7.876
22.788,7.984
22.792,8.232
22.796,8.1
22.8,7.88
22.804,7.852
22.808,8.024
22.812,7.996
22.816,7.844
22.82,8.044
22.824,8.704
22.828,9.4
22.832,9.636
22.836,9.508
22.84,9.452
22.844,9.24
22.848,8.376
22.852,7.82
22.856,7.852
22.86,8.04
22.864,7.952
22.868,7.86
22.872,8.084
22.876,8.304
22.88,8.104
22.884,7.888
22.888,7.988
22.892,8.24
22.896,8.108
22.9,7.872
22.904,7.924
22.908,8.188
22.912,8.144
22.916,7.892
22.92,7.912
22.924,8.156
22.928,8.192
22.932,7.912
22.936,7.88
22.94,8.116
22.944,8.22
22.948,7.972
22.952,7.88
22.956,8.104
22.96,8.26
22.964,8.008
22.968,7.892
22.972,8.068
22.976,8.288
22.98,8.108
22.984,7.936
22.988,8.02
22.992,8.296
22.996,8.2
23,7.956
23.004,8.06
23.008,8.336
23.012,8.292
23.016,8.052
23.02,8.064
23.024,8.368
23.028,8.404
23.032,8.148
23.036,8.096
23.04,8.34
23.044,8.46
23.048,8.2
23.052,8.144
23.056,8.316
23.06,8.516
23.064,8.332
23.068,8.184
23.072,8.404
23.076,8.648
23.08,8.5
23.084,8.328
23.088,8.504
23.092,8.772
23.096,8.728
23.1,8.536
23.104,8.6
23.108,8.856
23.112,8.82
23.116,8.604
23.12,8.632
23.124,8.88
23.128,8.956
23.132,8.704
23.136,8.628
23.14,8.808
23.144,8.852
23.148,8.532
23.152,8.356
23.156,8.492
23.16,8.592
23.164,8.348
23.168,8.16
23.172,8.296
23.176,8.504
23.18,8.268
23.184,8.032
23.188,8.108
23.192,8.356
23.196,8.22
23.2,7.94
23.204,7.984
23.208,8.228
23.212,8.192
23.216,7.944
23.22,7.92
23.224,8.196
23.228,8.204
23.232,7.968
23.236,7.904
23.24,8.14
23.244,8.248
23.248,7.968
23.252,7.88
23.256,8.1
23.26,8.252
23.264,8.028
23.268,7.844
23.272,8.02
23.276,8.276
23.28,8.132
23.284,7.912
23.288,8.044
23.292,8.256
23.296,8.156
23.3,7.936
23.304,7.98
23.308,8.248
23.312,8.208
23.316,7.96
23.32,7.988
23.324,8.248
23.328,8.292
23.332,8.016
23.336,7.936
23.34,8.18
23.344,8.284
23.348,8.044
23.352,7.936
23.356,8.144
23.36,8.272
23.364,8.056
23.368,7.928
23.372,8.084
23.376,8.344
23.38,8.156
23.384,7.924
23.388,7.992
23.392,8.252
23.396,8.164
23.4,7.888
23.404,7.964
23.408,8.252
23.412,8.228
23.416,7.944
23.42,7.944
23.424,8.172
23.428,8.232
23.432,7.984
23.436,7.92
23.44,8.164
23.444,8.224
23.448,7.988
23.452,7.86
23.456,8.084
23.46,8.28
23.464,8.048
23.468,7.904
23.472,8.056
23.476,8.284
23.48,8.096
23.484,7.848
23.488,7.964
23.492,8.216
23.496,8.108
23.5,7.896
23.504,7.964
23.508,8.212
23.512,8.196
23.516,7.944
23.52,7.916
23.524,8.212
23.528,8.228
23.532,7.988
23.536,7.92
23.54,8.124
23.544,8.232
23.548,7.98
23.552,7.86
23.556,8.076
23.56,8.26
23.564,8.032
23.568,7.864
23.572,8.016
23.576,8.272
23.58,8.128
23.584,7.964
23.588,8.104
23.592,8.38
23.596,8.244
23.6,8.028
23.604,8.132
23.608,8.424
23.612,8.432
23.616,8.144
23.62,8.084
23.624,8.264
23.628,8.332
23.632,8.076
23.636,7.984
23.64,8.22
23.644,8.284
23.648,7.984
23.652,7.828
23.656,8
23.66,8.188
23.664,7.996
23.668,7.824
23.672,7.996
23.676,8.204
23.68,7.964
23.684,7.656
23.688,7.74
23.692,8.156
23.696,8.308
23.7,8.444
23.704,9.148
23.708,9.924
23.712,9.848
23.716,9.26
23.72,8.9
23.724,8.612
23.728,8.104
23.732,7.648
23.736,7.624
23.74,7.94
23.744,8.124
23.748,7.944
23.752,7.884
23.756,8.06
23.76,8.192
23.764,7.984
23.768,7.812
23.772,7.98
23.776,8.196
23.78,8.024
23.784,7.82
23.788,7.896
23.792,8.16
23.796,8.076
23.8,7.836
23.804,7.88
23.808,8.192
23.812,8.172
23.816,7.904
23.82,7.856
23.824,8.096
23.828,8.148
23.832,7.916
23.836,7.872
23.84,8.096
23.844,8.204
23.848,7.936
23.852,7.868
23.856,8.072
23.86,8.26
23.864,8.044
23.868,7.9
23.872,8.076
23.876,8.324
23.88,8.136
23.884,7.928
23.888,8.04
23.892,8.312
23.896,8.252
23.9,8.028
23.904,8.068
23.908,8.348
23.912,8.36
23.916,8.104
23.92,8.116
23.924,8.364
23.928,8.36
23.932,8.268
23.936,8.128
23.94,8.396
23.944,8.6
23.948,8.436
23.952,8.276
23.956,8.488
23.96,8.696
23.964,8.54
23.968,8.364
23.972,8.54
23.976,8.82
23.98,8.716
23.984,8.556
23.988,8.608
23.992,8.916
23.996,8.82
24,8.596
24.004,8.656
24.008,8.916
24.012,8.912
24.016,8.648
24.02,8.516
24.024,8.724
24.028,8.752
24.032,8.48
24.036,8.3
24.04,8.48
24.044,8.556
24.048,8.276
24.052,8.08
24.056,8.232
24.06,8.416
24.064,8.168
24.068,7.948
24.072,8.096
24.076,8.336
24.08,8.136
24.084,7.912
24.088,8.004
24.092,8.28
24.096,8.176
24.1,7.936
24.104,7.92
24.108,8.2
24.112,8.208
24.116,7.972
24.12,7.916
24.124,8.16
24.128,8.22
24.132,8
24.136,7.864
24.14,8.096
24.144,8.268
24.148,8.04
24.152,7.888
24.156,8.084
24.16,8.284
24.164,8.104
24.168,7.908
24.172,8.068
24.176,8.3
24.18,8.176
24.184,7.952
24.188,7.988
24.192,8.248
24.196,8.188
24.2,7.972
24.204,7.988
24.208,8.3
24.212,8.264
24.216,8.028
24.22,7.928
24.224,8.2
24.228,8.276
24.232,8.056
24.236,7.908
24.24,8.14
24.244,8.276
24.248,8.056
24.252,7.888
24.256,8.088
24.26,8.28
24.264,8.104
24.268,7.912
24.272,8.064
24.276,8.292
24.28,8.116
24.284,7.892
24.288,8
24.292,8.272
24.296,8.184
24.3,7.956
24.304,7.948
24.308,8.224
24.312,8.224
24.316,7.988
24.32,7.912
24.324,8.176
24.328,8.252
24.332,8.004
24.336,7.872
24.34,8.112
24.344,8.248
24.348,8.016
24.352,7.884
24.356,8.084
24.36,8.248
24.364,8.016
24.368,7.856
24.372,8.032
24.376,8.264
24.38,8.12
24.384,7.892
24.388,7.952
24.392,8.24
24.396,8.164
24.4,7.924
24.404,7.908
24.408,8.196
24.412,8.2
24.416,7.984
24.42,7.924
24.424,8.168
24.428,8.204
24.432,8
24.436,7.86
24.44,8.112
24.444,8.264
24.448,8.036
24.452,7.864
24.456,8.056
24.46,8.28
24.464,8.112
24.468,7.9
24.472,8.028
24.476,8.296
24.48,8.164
24.484,8
24.488,8.092
24.492,8.36
24.496,8.264
24.5,8.06
24.504,8.084
24.508,8.388
24.512,8.38
24.516,8.152
24.52,8.056
24.524,8.28
24.528,8.308
24.532,8.12
24.536,7.976
24.54,8.2
24.544,8.364
24.548,8.08
24.552,7.9
24.556,8.056
24.56,8.22
24.564,8.004
24.568,7.84
24.572,7.976
24.576,8.204
24.58,8.016
24.584,7.752
24.588,7.728
24.592,8.092
24.596,8.164
24.6,8.232
24.604,8.752
24.608,9.732
24.612,9.964
24.616,9.536
24.62,9.124
24.624,8.924
24.628,8.388
24.632,7.816
24.636,7.608
24.64,7.94
24.644,8.184
24.648,8.036
24.652,7.912
24.656,8.072
24.66,8.224
24.664,8.056
24.668,7.872
24.672,7.952
24.676,8.22
24.68,8.06
24.684,7.852
24.688,7.952
24.692,8.184
24.696,8.128
24.7,7.888
24.704,7.868
24.708,8.156
24.712,8.136
24.716,7.936
24.72,7.84
24.724,8.124
24.728,8.192
24.732,7.968
24.736,7.84
24.74,8.08
24.744,8.224
24.748,8.024
24.752,7.884
24.756,8.088
24.76,8.276
24.764,8.084
24.768,7.928
24.772,8.048
24.776,8.292
24.78,8.168
24.784,8.004
24.788,8.048
24.792,8.324
24.796,8.24
24.8,8.056
24.804,8.02
24.808,8.36
24.812,8.392
24.816,8.184
24.82,8.092
24.824,8.384
24.828,8.448
24.832,8.228
24.836,8.156
24.84,8.392
24.844,8.6
24.848,8.392
24.852,8.276
24.856,8.476
24.86,8.692
24.864,8.54
24.868,8.424
24.872,8.572
24.876,8.816
24.88,8.704
24.884,8.548
24.888,8.636
24.892,8.908
24.896,8.816
24.9,8.636
24.904,8.616
24.908,8.896
24.912,8.88
24.916,8.628
24.92,8.524
24.924,8.76
24.928,8.788
24.932,8.508
24.936,8.348
24.94,8.504
24.944,8.6
24.948,8.344
24.952,8.148
24.956,8.288
24.96,8.44
24.964,8.196
24.968,8.028
24.972,8.12
24.976,8.348
24.98,8.192
24.984,7.992
24.988,8.016
24.992,8.276
24.996,8.204
25,8.004
25.004,7.896
25.008,8.192
25.012,8.204
25.016,7.992
25.02,7.904
25.024,8.176
25.028,8.224
25.032,7.992
25.036,7.876
25.04,8.132
25.044,8.292
25.048,8.056
25.052,7.92
25.056,8.08
25.06,8.332
25.064,8.156
25.068,7.96
25.072,8.04
25.076,8.28
25.08,8.176
25.084,7.988
25.088,8.024
25.092,8.28
25.096,8.216
25.1,8.024
25.104,8.012
25.108,8.284
25.112,8.256
25.116,8.056
25.12,7.952
25.124,8.212
25.128,8.32
25.132,8.056
25.136,7.928
25.14,8.168
25.144,8.32
25.148,8.088
25.152,7.952
25.156,8.108
25.16,8.304
25.164,8.104
25.168,7.96
25.172,8.06
25.176,8.284
25.18,8.144
25.184,7.952
25.188,7.984
25.192,8.284
25.196,8.184
25.2,7.98
25.204,7.936
25.208,8.22
25.212,8.256
25.216,8.004
25.22,7.912
25.224,8.148
25.228,8.244
25.232,8.032
25.236,7.936
25.24,8.148
25.244,8.308
25.248,8.052
25.252,7.904
25.256,8.056
25.26,8.256
25.264,8.064
25.268,7.92
25.272,8.024
25.276,8.272
25.28,8.128
25.284,7.936
25.288,7.96
25.292,8.232
25.296,8.144
25.3,7.976
25.304,7.94
25.308,8.208
25.312,8.22
25.316,7.992
25.32,7.928
25.324,8.164
25.328,8.244
25.332,7.984
25.336,7.912
25.34,8.132
25.344,8.276
25.348,8.036
25.352,7.888
25.356,8.044
25.36,8.272
25.364,8.092
25.368,7.936
25.372,8.024
25.376,8.28
25.38,8.144
25.384,7.936
25.388,7.992
25.392,8.236
25.396,8.212
25.4,7.988
25.404,7.96
25.408,8.244
25.412,8.204
25.416,7.972
25.42,7.924
25.424,8.188
25.428,8.272
25.432,8
25.436,7.896
25.44,8.092
25.444,8.284
25.448,8.06
25.452,7.916
25.456,8.104
25.46,8.348
25.464,8.128
25.468,7.972
25.472,8.108
25.476,8.384
25.48,8.252
25.484,8.02
25.488,8.072
25.492,8.436
25.496,8.416
25.5,8.176
25.504,8.152
25.508,8.392
25.512,8.344
25.516,8.06
25.52,8.016
25.524,8.224
25.528,8.308
25.532,8.072
25.536,7.948
25.54,8.144
25.544,8.268
25.548,8.016
25.552,7.848
25.556,7.98
25.56,8.236
25.564,8.056
25.568,7.852
25.572,7.848
25.576,8.096
25.58,8.064
25.584,8.04
25.588,8.436
25.592,9.352
25.596,9.828
25.6,9.612
25.604,9.264
25.608,9.244
25.612,8.716
25.616,7.952
25.62,7.656
25.624,7.9
25.628,8.136
25.632,7.964
25.636,7.948
25.64,8.192
25.644,8.28
25.648,8.036
25.652,7.88
25.656,8.024
25.66,8.224
25.664,8.072
25.668,7.888
25.672,7.968
25.676,8.212
25.68,8.104
25.684,7.948
25.688,7.976
25.692,8.244
25.696,8.176
25.7,7.928
25.704,7.916
25.708,8.188
25.712,8.228
25.716,7.992
25.72,7.936
25.724,8.16
25.728,8.272
25.732,8.028
25.736,7.912
25.74,8.116
25.744,8.292
25.748,8.092
25.752,7.932
25.756,8.076
25.76,8.292
25.764,8.164
25.768,8.016
25.772,8.136
25.776,8.376
25.78,8.24
25.784,8.056
25.788,8.12
25.792,8.4
25.796,8.336
25.8,8.1
25.804,8.096
25.808,8.412
25.812,8.468
25.816,8.22
25.82,8.132
25.824,8.424
25.828,8.56
25.832,8.372
25.836,8.3
25.84,8.504
25.844,8.668
25.848,8.456
25.852,8.356
25.856,8.564
25.86,8.844
25.864,8.668
25.868,8.524
25.872,8.6
25.876,8.92
25.88,8.808
25.884,8.6
25.888,8.668
25.892,8.932
25.896,8.884
25.9,8.676
25.904,8.632
25.908,8.868
25.912,8.836
25.916,8.568
25.92,8.472
25.924,8.648
25.928,8.728
25.932,8.432
25.936,8.268
25.94,8.356
25.944,8.496
25.948,8.244
25.952,8.112
25.956,8.216
25.96,8.408
25.964,8.188
25.968,8.012
25.972,8.064
25.976,8.296
25.98,8.184
25.984,8.016
25.988,8.028
25.992,8.292
25.996,8.244
26,7.992
26.004,7.964
26.008,8.236
26.012,8.268
26.016,7.996
26.02,7.892
26.024,8.14
26.028,8.256
26.032,8.06
26.036,7.948
26.04,8.144
26.044,8.312
26.048,8.096
26.052,8.004
26.056,8.092
26.06,8.316
26.064,8.156
26.068,8.024
26.072,8.1
26.076,8.352
26.08,8.192
26.084,8.016
26.088,8.052
26.092,8.344
26.096,8.304
26.1,8.04
26.104,8.008
26.108,8.272
26.112,8.308
26.116,8.056
26.12,7.984
26.124,8.2
26.128,8.312
26.132,8.06
26.136,7.992
26.14,8.2
26.144,8.36
26.148,8.08
26.152,7.936
26.156,8.096
26.16,8.332
26.164,8.124
26.168,7.956
26.172,8.036
26.176,8.284
26.18,8.2
26.184,8.036
26.188,8.056
26.192,8.312
26.196,8.24
26.2,8.016
26.204,7.976
26.208,8.196
26.212,8.252
26.216,7.976
26.22,7.928
26.224,8.176
26.228,8.276
26.232,8.016
26.236,7.928
26.24,8.136
26.244,8.276
26.248,8.044
26.252,7.916
26.256,8.072
26.26,8.288
26.264,8.144
26.268,7.996
26.272,8.048
26.276,8.272
26.28,8.12
26.284,7.944
26.288,8.004
26.292,8.264
26.296,8.208
26.3,7.968
26.304,7.968
26.308,8.24
26.312,8.26
26.316,8.012
26.32,7.932
26.324,8.168
26.328,8.272
26.332,7.996
26.336,7.876
26.34,8.092
26.344,8.3
26.348,8.052
26.352,7.94
26.356,8.084
26.36,8.284
26.364,8.1
26.368,7.964
26.372,8.016
26.376,8.304
26.38,8.176
26.384,7.972
26.388,8.008
26.392,8.228
26.396,8.188
26.4,7.948
26.404,7.956
26.408,8.224
26.412,8.252
26.416,8.032
26.42,7.952
26.424,8.164
26.428,8.288
26.432,8.06
26.436,8.016
26.44,8.232
26.444,8.404
26.448,8.18
26.452,8.076
26.456,8.264
26.46,8.544
26.464,8.352
26.468,8.14
26.472,8.168
26.476,8.388
26.48,8.296
26.484,8.072
26.488,8.06
26.492,8.344
26.496,8.296
26.5,8.036
26.504,7.932
26.508,8.172
26.512,8.232
26.516,7.964
26.52,7.9
26.524,8.112
26.528,8.22
26.532,7.876
26.536,7.728
26.54,7.984
26.544,8.36
26.548,8.408
26.552,8.764
26.556,9.588
26.56,10.116
26.564,9.704
26.568,9.196
26.572,8.832
26.576,8.488
26.58,7.948
26.584,7.68
26.588,7.74
26.592,8.1
26.596,8.152
26.6,7.928
26.604,7.96
26.608,8.212
26.612,8.304
26.616,7.98
26.62,7.864
26.624,8.104
26.628,8.296
26.632,7.96
26.636,7.872
26.64,8.072
26.644,8.304
26.648,8.064
26.652,7.908
26.656,8.036
26.66,8.284
26.664,8.084
26.668,7.936
26.672,8.004
26.676,8.3
26.68,8.184
26.684,7.928
26.688,7.956
26.692,8.3
26.696,8.256
26.7,7.976
26.704,7.936
26.708,8.244
26.712,8.348
26.716,8.06
26.72,7.996
26.724,8.224
26.728,8.384
26.732,8.084
26.736,8
26.74,8.168
26.744,8.444
26.748,8.188
26.752,8.04
26.756,8.188
26.76,8.492
26.764,8.324
26.768,8.132
26.772,8.2
26.776,8.528
26.78,8.484
26.784,8.212
26.788,8.244
26.792,8.596
26.796,8.616
26.8,8.344
26.804,8.316
26.808,8.664
26.812,8.756
26.816,8.468
26.82,8.408
26.824,8.7
26.828,8.884
26.832,8.624
26.836,8.504
26.84,8.724
26.844,9.004
26.848,8.772
26.852,8.588
26.856,8.716
26.86,9.012
26.864,8.844
26.868,8.616
26.872,8.648
26.876,8.952
26.88,8.768
26.884,8.456
26.888,8.44
26.892,8.692
26.896,8.604
26.9,8.264
26.904,8.192
26.908,8.456
26.912,8.508
26.916,8.176
26.92,8.044
26.924,8.24
26.928,8.424
26.932,8.136
26.936,7.956
26.94,8.148
26.944,8.38
26.948,8.116
26.952,7.908
26.956,8.08
26.96,8.372
26.964,8.176
26.968,7.968
26.972,8.06
26.976,8.356
26.98,8.236
26.984,7.972
26.988,7.968
26.992,8.348
26.996,8.336
27,8.004
27.004,7.936
27.008,8.24
27.012,8.328
27.016,8.072
27.02,7.976
27.024,8.224
27.028,8.38
27.032,8.1
27.036,7.972
27.04,8.184
27.044,8.444
27.048,8.18
27.052,8
27.056,8.084
27.06,8.416
27.064,8.232
27.068,8.02
27.072,8.052
27.076,8.364
27.08,8.26
27.084,8.008
27.088,8.028
27.092,8.332
27.096,8.288
27.1,8.016
27.104,7.94
27.108,8.26
27.112,8.352
27.116,8.048
27.12,7.968
27.124,8.164
27.128,8.356
27.132,8.096
27.136,7.916
27.14,8.128
27.144,8.38
27.148,8.124
27.152,7.944
27.156,8.04
27.16,8.352
27.164,8.168
27.168,7.94
27.172,8
27.176,8.324
27.18,8.208
27.184,7.96
27.188,7.996
27.192,8.284
27.196,8.276
27.2,7.968
27.204,7.912
27.208,8.236
27.212,8.312
27.216,7.996
27.22,7.9
27.224,8.176
27.228,8.34
27.232,8.08
27.236,7.96
27.24,8.124
27.244,8.336
27.248,8.12
27.252,7.972
27.256,8.088
27.26,8.348
27.264,8.192
27.268,7.944
27.272,7.996
27.276,8.312
27.28,8.224
27.284,7.984
27.288,7.98
27.292,8.264
27.296,8.272
27.3,7.992
27.304,7.96
27.308,8.224
27.312,8.276
27.316,8.024
27.32,7.94
27.324,8.168
27.328,8.34
27.332,8.076
27.336,7.956
27.34,8.132
27.344,8.328
27.348,8.08
27.352,7.964
27.356,8.124
27.36,8.392
27.364,8.244
27.368,8.08
27.372,8.148
27.376,8.46
27.38,8.336
27.384,8.132
27.388,8.196
27.392,8.5
27.396,8.468
27.4,8.204
27.404,8.144
27.408,8.352
27.412,8.412
27.416,8.112
27.42,8.048
27.424,8.296
27.428,8.36
27.432,8.104
27.436,7.98
27.44,8.096
27.444,8.3
27.448,8.104
27.452,7.944
27.456,8.048
27.46,8.228
27.464,7.984
27.468,7.756
27.472,7.932
27.476,8.344
27.48,8.556
27.484,8.896
27.488,9.56
27.492,9.992
27.496,9.704
27.5,9.192
27.504,8.736
27.508,8.376
27.512,8.068
27.516,7.78
27.52,7.792
27.524,8.092
27.528,8.284
27.532,8.108
27.536,8
27.54,8.124
27.544,8.312
27.548,8.064
27.552,7.988
27.556,8.052
27.56,8.272
27.564,8.124
27.568,7.936
27.572,8.016
27.576,8.276
27.58,8.196
27.584,7.968
27.588,7.98
27.592,8.28
27.596,8.244
27.6,8.004
27.604,7.996
27.608,8.212
27.612,8.284
27.616,8.04
27.62,7.976
27.624,8.184
27.628,8.32
27.632,8.088
27.636,7.992
27.64,8.176
27.644,8.364
27.648,8.16
27.652,8.024
27.656,8.164
27.66,8.396
27.664,8.232
27.668,8.056
27.672,8.14
27.676,8.424
27.68,8.344
27.684,8.136
27.688,8.164
27.692,8.464
27.696,8.44
27.7,8.208
27.704,8.224
27.708,8.444
27.712,8.512
27.716,8.26
27.72,8.284
27.724,8.492
27.728,8.648
27.732,8.436
27.736,8.388
27.74,8.556
27.744,8.764
27.748,8.612
27.752,8.472
27.756,8.644
27.76,8.884
27.764,8.756
27.768,8.6
27.772,8.72
27.776,8.964
27.78,8.892
27.784,8.7
27.788,8.736
27.792,8.992
27.796,8.932
27.8,8.68
27.804,8.636
27.808,8.828
27.812,8.844
27.816,8.528
27.82,8.412
27.824,8.556
27.828,8.64
27.832,8.372
27.836,8.232
27.84,8.356
27.844,8.484
27.848,8.252
27.852,8.108
27.856,8.176
27.86,8.376
27.864,8.212
27.868,8.016
27.872,8.124
27.876,8.344
27.88,8.216
27.884,7.992
27.888,7.984
27.892,8.26
27.896,8.264
27.9,8.036
27.904,7.996
27.908,8.208
27.912,8.268
27.916,8.028
27.92,7.988
27.924,8.2
27.928,8.352
27.932,8.096
27.936,8.024
27.94,8.156
27.944,8.36
27.948,8.12
27.952,8
27.956,8.132
27.96,8.388
27.964,8.188
27.968,8.008
27.972,8.112
27.976,8.392
27.98,8.296
27.984,8.076
27.988,8.088
27.992,8.332
27.996,8.312
28,8.06
28.004,8.052
28.008,8.268
28.012,8.296
28.016,8.056
28.02,8.024
28.024,8.212
28.028,8.364
28.032,8.124
28.036,8.048
28.04,8.184
28.044,8.376
28.048,8.144
28.052,8.012
28.056,8.112
28.06,8.336
28.064,8.192
28.068,7.992
28.072,8.064
28.076,8.292
28.08,8.196
28.084,7.98
28.088,8.044
28.092,8.268
28.096,8.28
28.1,8.008
28.104,8.028
28.108,8.24
28.112,8.312
28.116,8.036
28.12,7.952
28.124,8.176
28.128,8.296
28.132,8.072
28.136,7.96
28.14,8.128
28.144,8.348
28.148,8.144
28.152,7.968
28.156,8.104
28.16,8.324
28.164,8.152
28.168,7.936
28.172,8.032
28.176,8.316
28.18,8.204
28.184,7.984
28.188,8.04
28.192,8.308
28.196,8.308
28.2,8.016
28.204,7.996
28.208,8.22
28.212,8.288
28.216,8.048
28.22,8
28.224,8.18
28.228,8.308
28.232,8.06
28.236,7.968
28.24,8.128
28.244,8.3
28.248,8.108
28.252,7.956
28.256,8.072
28.26,8.324
28.264,8.204
28.268,8.028
28.272,8.164
28.276,8.392
28.28,8.324
28.284,8.08
28.288,8.14
28.292,8.436
28.296,8.416
28.3,8.228
28.304,8.216
28.308,8.388
28.312,8.392
28.316,8.112
28.32,8.08
28.324,8.252
28.328,8.376
28.332,8.092
28.336,7.996
28.34,8.12
28.344,8.308
28.348,8.088
28.352,7.892
28.356,8.028
28.36,8.244
28.364,8.08
28.368,7.836
28.372,7.804
28.376,8.116
28.38,8.188
28.384,8.208
28.388,8.676
28.392,9.628
28.396,10.036
28.4,9.68
28.404,9.4
28.408,9.26
28.412,8.728
28.416,7.868
28.42,7.592
28.424,7.88
28.428,8.088
28.432,7.972
28.436,7.984
28.44,8.124
28.444,8.304
28.448,8.064
28.452,7.912
28.456,8.012
28.46,8.24
28.464,8.08
28.468,7.892
28.472,8.02
28.476,8.284
28.48,8.156
28.484,7.948
28.488,8.012
28.492,8.244
28.496,8.224
28.5,7.96
28.504,7.956
28.508,8.18
28.512,8.228
28.516,8.008
28.52,7.96
28.524,8.16
28.528,8.296
28.532,8.08
28.536,8.008
28.54,8.176
28.544,8.364
28.548,8.132
28.552,7.968
28.556,8.088
28.56,8.336
28.564,8.204
28.568,8.024
28.572,8.136
28.576,8.38
28.58,8.292
28.584,8.108
28.588,8.152
28.592,8.408
28.596,8.4
28.6,8.176
28.604,8.196
28.608,8.388
28.612,8.48
28.616,8.264
28.62,8.244
28.624,8.452
28.628,8.612
28.632,8.416
28.636,8.376
28.64,8.548
28.644,8.78
28.648,8.604
28.652,8.464
28.656,8.612
28.66,8.868
28.664,8.748
28.668,8.568
28.672,8.684
28.676,8.928
28.68,8.908
28.684,8.684
28.688,8.752
28.692,8.988
28.696,8.972
28.7,8.728
28.704,8.728
28.708,8.904
28.712,8.936
28.716,8.644
28.72,8.54
28.724,8.676
28.728,8.744
28.732,8.444
28.736,8.292
28.74,8.36
28.744,8.508
28.748,8.276
28.752,8.104
28.756,8.224
28.76,8.384
28.764,8.252
28.768,8.012
28.772,8.096
28.776,8.356
28.78,8.236
28.784,7.98
28.788,8.02
28.792,8.2
28.796,8.244
28.8,7.98
28.804,7.996
28.808,8.196
28.812,8.26
28.816,8.028
28.82,7.972
28.824,8.16
28.828,8.312
28.832,8.092
28.836,7.996
28.84,8.164
28.844,8.356
28.848,8.14
28.852,8.008
28.856,8.116
28.86,8.364
28.864,8.208
28.868,8.02
28.872,8.116
28.876,8.352
28.88,8.264
28.884,8.012
28.888,8.08
28.892,8.312
28.896,8.332
28.9,8.072
28.904,8.064
28.908,8.252
28.912,8.296
28.916,8.068
28.92,8.024
28.924,8.204
28.928,8.38
28.932,8.128
28.936,7.988
28.94,8.12
28.944,8.34
28.948,8.156
28.952,7.98
28.956,8.116
28.96,8.332
28.964,8.168
28.968,8
28.972,8.088
28.976,8.3
28.98,8.236
28.984,7.98
28.988,8.044
28.992,8.272
28.996,8.24
29,7.98
29.004,8.004
29.008,8.208
29.012,8.276
29.016,8.032
29.02,7.968
29.024,8.16
29.028,8.316
29.032,8.084
29.036,7.98
29.04,8.128
29.044,8.328
29.048,8.124
29.052,7.96
29.056,8.112
29.06,8.312
29.064,8.164
29.068,7.932
29.072,8.044
29.076,8.292
29.08,8.208
29.084,7.988
29.088,8.04
29.092,8.288
29.096,8.292
29.1,8.024
29.104,8.016
29.108,8.212
29.112,8.292
29.116,8.032
29.12,7.992
29.124,8.18
29.128,8.328
29.132,8.072
29.136,7.964
29.14,8.108
29.144,8.32
29.148,8.1
29.152,7.956
29.156,8.1
29.16,8.356
29.164,8.196
29.168,7.976
29.172,8.072
29.176,8.328
29.18,8.304
29.184,8.092
29.188,8.14
29.192,8.364
29.196,8.376
29.2,8.172
29.204,8.192
29.208,8.428
29.212,8.508
29.216,8.232
29.22,8.104
29.224,8.28
29.228,8.46
29.232,8.192
29.236,8.048
29.24,8.188
29.244,8.368
29.248,8.172
29.252,7.952
29.256,8.044
29.26,8.288
29.264,8.144
29.268,7.96
29.272,8.048
29.276,8.204
29.28,8.052
29.284,7.736
29.288,7.888
29.292,8.328
29.296,8.656
29.3,9.004
29.304,9.66
29.308,10.036
29.312,9.868
29.316,9.292
29.32,8.76
29.324,8.308
29.328,8.144
29.332,7.864
29.336,7.812
29.34,8.072
29.344,8.316
29.348,8.144
29.352,7.972
29.356,8.128
29.36,8.324
29.364,8.124
29.368,7.904
29.372,8.024
29.376,8.272
29.38,8.204
29.384,7.96
29.388,7.996
29.392,8.216
29.396,8.244
29.4,8.016
29.404,8
29.408,8.212
29.412,8.288
29.416,8.024
29.42,7.996
29.424,8.16
29.428,8.304
29.432,8.052
29.436,7.968
29.44,8.16
29.444,8.356
29.448,8.152
29.452,7.964
29.456,8.1
29.46,8.344
29.464,8.188
29.468,8.008
29.472,8.132
29.476,8.38
29.48,8.296
29.484,8.06
29.488,8.096
29.492,8.36
29.496,8.392
29.5,8.152
29.504,8.172
29.508,8.396
29.512,8.476
29.516,8.212
29.52,8.196
29.524,8.408
29.528,8.572
29.532,8.344
29.536,8.248
29.54,8.428
29.544,8.664
29.548,8.512
29.552,8.352
29.556,8.516
29.56,8.772
29.564,8.684
29.568,8.504
29.572,8.648
29.576,8.896
29.58,8.868
29.584,8.644
29.588,8.732
29.592,8.976
29.596,8.992
29.6,8.74
29.604,8.724
29.608,8.936
29.612,9.004
29.616,8.74
29.62,8.604
29.624,8.748
29.628,8.872
29.632,8.592
29.636,8.42
29.64,8.52
29.644,8.668
29.648,8.42
29.652,8.212
29.656,8.316
29.66,8.488
29.664,8.336
29.668,8.072
29.672,8.124
29.676,8.352
29.68,8.3
29.684,8.04
29.688,8.088
29.692,8.272
29.696,8.296
29.7,8.028
29.704,7.984
29.708,8.228
29.712,8.3
29.716,8.036
29.72,7.952
29.724,8.14
29.728,8.312
29.732,8.076
29.736,7.964
29.74,8.14
29.744,8.328
29.748,8.136
29.752,7.968
29.756,8.108
29.76,8.356
29.764,8.212
29.768,7.984
29.772,8.12
29.776,8.328
29.78,8.292
29.784,8.08
29.788,8.092
29.792,8.288
29.796,8.296
29.8,8.06
29.804,8.076
29.808,8.26
29.812,8.372
29.816,8.104
29.82,8.032
29.824,8.236
29.828,8.412
29.832,8.168
29.836,8
29.84,8.172
29.844,8.38
29.848,8.18
29.852,7.992
29.856,8.152
29.86,8.356
29.864,8.224
29.868,8.012
29.872,8.108
29.876,8.32
29.88,8.244
29.884,8.012
29.888,8.048
29.892,8.316
29.896,8.296
29.9,8.032
29.904,8.02
29.908,8.252
29.912,8.324
29.916,8.06
29.92,7.984
29.924,8.168
29.928,8.34
29.932,8.108
29.936,7.98
29.94,8.144
29.944,8.336
29.948,8.152
29.952,7.984
29.956,8.14
29.96,8.308
29.964,8.176
29.968,7.968
29.972,8.092
29.976,8.32
29.98,8.236
29.984,7.996
29.988,8.064
29.992,8.252
29.996,8.296
30,8.048
30.004,8.044
30.008,8.228
30.012,8.292
30.016,8.032
30.02,7.964
30.024,8.176
30.028,8.34
30.032,8.08
30.036,7.976
30.04,8.196
30.044,8.344
30.048,8.144
30.052,7.928
30.056,8.1
30.06,8.312
30.064,8.184
30.068,7.976
30.072,8.092
30.076,8.304
30.08,8.228
30.084,7.992
30.088,8.044
30.092,8.264
30.096,8.264
30.1,7.988
30.104,8
30.108,8.228
30.112,8.304
30.116,8.052
30.12,7.98
30.124,8.2
30.128,8.404
30.132,8.224
30.136,8.08
30.14,8.28
30.144,8.456
30.148,8.316
30.152,8.152
30.156,8.26
30.16,8.516
30.164,8.384
30.168,8.124
30.172,8.184
30.176,8.36
30.18,8.3
30.184,8.052
30.188,8.116
30.192,8.336
30.196,8.332
30.2,8.04
30.204,7.992
30.208,8.192
30.212,8.24
30.216,7.992
30.22,7.924
30.224,8.076
30.228,8.156
30.232,7.856
30.236,7.796
30.24,8.132
30.244,8.54
30.248,8.9
30.252,9.432
30.256,9.9
30.26,9.888
30.264,9.476
30.268,8.804
30.272,8.296
30.276,8.144
30.28,8
30.284,7.828
30.288,7.976
30.292,8.248
30.296,8.312
30.3,8.036
30.304,8.024
30.308,8.196
30.312,8.244
30.316,8.012
30.32,7.912
30.324,8.14
30.328,8.296
30.332,8.08
30.336,7.936
30.34,8.124
30.344,8.308
30.348,8.096
30.352,7.936
30.356,8.104
30.36,8.296
30.364,8.168
30.368,7.956
30.372,8.072
30.376,8.24
30.38,8.224
30.384,7.984
30.388,8.024
30.392,8.256
30.396,8.284
30.4,8.048
30.404,8.048
30.408,8.28
30.412,8.32
30.416,8.076
30.42,8.028
30.424,8.228
30.428,8.396
30.432,8.172
30.436,8.064
30.44,8.24
30.444,8.408
30.448,8.236
30.452,8.096
30.456,8.24
30.46,8.468
30.464,8.372
30.468,8.2
30.472,8.332
30.476,8.54
30.48,8.452
30.484,8.256
30.488,8.348
30.492,8.596
30.496,8.616
30.5,8.416
30.504,8.412
30.508,8.636
30.512,8.792
30.516,8.596
30.52,8.56
30.524,8.764
30.528,8.912
30.532,8.732
30.536,8.632
30.54,8.812
30.544,8.992
30.548,8.82
30.552,8.66
30.556,8.82
30.56,9.044
30.564,8.928
30.568,8.656
30.572,8.712
30.576,8.872
30.58,8.748
30.584,8.468
30.588,8.464
30.592,8.612
30.596,8.584
30.6,8.304
30.604,8.212
30.608,8.416
30.612,8.46
30.616,8.208
30.62,8.108
30.624,8.292
30.628,8.392
30.632,8.116
30.636,7.976
30.64,8.164
30.644,8.348
30.648,8.152
30.652,7.956
30.656,8.116
30.66,8.316
30.664,8.18
30.668,7.992
30.672,8.092
30.676,8.304
30.68,8.24
30.684,7.996
30.688,8.032
30.692,8.276
30.696,8.292
30.7,8.036
30.704,8.056
30.708,8.292
30.712,8.364
30.716,8.096
30.72,7.992
30.724,8.22
30.728,8.364
30.732,8.16
30.736,8.036
30.74,8.216
30.744,8.38
30.748,8.192
30.752,8.024
30.756,8.168
30.76,8.344
30.764,8.236
30.768,8.056
30.772,8.16
30.776,8.34
30.78,8.304
30.784,8.048
30.788,8.104
30.792,8.336
30.796,8.32
30.8,8.052
30.804,8.024
30.808,8.288
30.812,8.376
30.816,8.112
30.82,7.948
30.824,8.156
30.828,8.336
30.832,8.144
30.836,8
30.84,8.2
30.844,8.344
30.848,8.144
30.852,8
30.856,8.168
30.86,8.344
30.864,8.208
30.868,7.98
30.872,8.104
30.876,8.304
30.88,8.248
30.884,7.972
30.888,8.024
30.892,8.24
30.896,8.288
30.9,8.064
30.904,8.012
30.908,8.204
30.912,8.284
30.916,8.056
30.92,7.988
30.924,8.188
30.928,8.324
30.932,8.084
30.936,7.94
30.94,8.136
30.944,8.304
30.948,8.14
30.952,7.98
30.956,8.08
30.96,8.292
30.964,8.192
30.968,8
30.972,8.092
30.976,8.308
30.98,8.26
30.984,8.02
30.988,8.06
30.992,8.24
30.996,8.248
31,7.996
31.004,8.004
31.008,8.208
31.012,8.312
31.016,8.06
31.02,7.976
31.024,8.192
31.028,8.328
31.032,8.096
31.036,7.968
31.04,8.16
31.044,8.312
31.048,8.116
31.052,7.992
31.056,8.136
31.06,8.292
31.064,8.16
31.068,7.976
31.072,8.124
31.076,8.384
31.08,8.34
31.084,8.096
31.088,8.092
31.092,8.36
31.096,8.4
31.1,8.208
31.104,8.236
31.108,8.456
31.112,8.484
31.116,8.2
31.12,8.092
31.124,8.32
31.128,8.428
31.132,8.176
31.136,8.088
31.14,8.196
31.144,8.344
31.148,8.128
31.152,7.92
31.156,8.1
31.16,8.284
31.164,8.156
31.168,7.92
31.172,7.988
31.176,8.128
31.18,8.036
31.184,7.908
31.188,8.104
31.192,8.652
31.196,9.256
31.2,9.724
31.204,9.96
31.208,9.924
31.212,9.656
31.216,8.936
31.22,8.156
31.224,7.94
31.228,8.068
31.232,7.924
31.236,7.828
31.24,8.128
31.244,8.328
31.248,8.168
31.252,7.952
31.256,8.056
31.26,8.276
31.264,8.14
31.268,7.948
31.272,8.068
31.276,8.268
31.28,8.192
31.284,7.944
31.288,8
31.292,8.216
31.296,8.284
31.3,8.04
31.304,7.984
31.308,8.168
31.312,8.24
31.316,7.984
31.32,7.916
31.324,8.168
31.328,8.316
31.332,8.088
31.336,7.968
31.34,8.176
31.344,8.348
31.348,8.216
31.352,8.044
31.356,8.172
31.36,8.344
31.364,8.184
31.368,7.992
31.372,8.112
31.376,8.376
31.38,8.32
31.384,8.112
31.388,8.164
31.392,8.36
31.396,8.396
31.4,8.196
31.404,8.176
31.408,8.46
31.412,8.532
31.416,8.276
31.42,8.188
31.424,8.424
31.428,8.632
31.432,8.44
31.436,8.32
31.44,8.5
31.444,8.676
31.448,8.512
31.452,8.388
31.456,8.6
31.46,8.8
31.464,8.712
31.468,8.512
31.472,8.672
31.476,8.92
31.48,8.908
31.484,8.692
31.488,8.696
31.492,8.964
31.496,9.012
31.5,8.772
31.504,8.764
31.508,8.996
31.512,9.076
31.516,8.792
31.52,8.62
31.524,8.76
31.528,8.836
31.532,8.584
31.536,8.392
31.54,8.536
31.544,8.644
31.548,8.416
31.552,8.192
31.556,8.316
31.56,8.464
31.564,8.332
31.568,8.112
31.572,8.152
31.576,8.372
31.58,8.3
31.584,8.06
31.588,8.052
31.592,8.264
31.596,8.268
31.6,8.012
31.604,8.008
31.608,8.252
31.612,8.316
31.616,8.092
31.62,7.984
31.624,8.2
31.628,8.356
31.632,8.128
31.636,7.976
31.64,8.18
31.644,8.336
31.648,8.176
31.652,8.028
31.656,8.18
31.66,8.344
31.664,8.216
31.668,8.008
31.672,8.14
31.676,8.364
31.68,8.284
31.684,8.052
31.688,8.096
31.692,8.348
31.696,8.348
31.7,8.112
31.704,8.068
31.708,8.268
31.712,8.356
31.716,8.144
31.72,8.06
31.724,8.28
31.728,8.384
31.732,8.164
31.736,8.024
31.74,8.224
31.744,8.38
31.748,8.2
31.752,8.016
31.756,8.164
31.76,8.348
31.764,8.24
31.768,8.016
31.772,8.124
31.776,8.344
31.78,8.272
31.784,8.064
31.788,8.072
31.792,8.284
31.796,8.264
31.8,8.048
31.804,8.024
31.808,8.256
31.812,8.332
31.816,8.072
31.82,8.004
31.824,8.232
31.828,8.344
31.832,8.116
31.836,7.972
31.84,8.184
31.844,8.352
31.848,8.152
31.852,7.984
31.856,8.16
31.86,8.32
31.864,8.228
31.868,8.044
31.872,8.104
31.876,8.28
31.88,8.24
31.884,8.016
31.888,8.048
31.892,8.264
31.896,8.256
31.9,8.032
31.904,8
31.908,8.24
31.912,8.348
31.916,8.072
31.92,7.94
31.924,8.144
31.928,8.296
31.932,8.088
31.936,7.952
31.94,8.156
31.944,8.316
31.948,8.116
31.952,7.992
31.956,8.132
31.96,8.288
31.964,8.18
31.968,7.956
31.972,7.98
31.976,8.252
31.98,8.288
31.984,8.12
31.988,8.228
31.992,8.512
31.996,8.464
32,8.228
32.004,8.152
32.008,8.428
32.012,8.508
32.016,8.308
32.02,8.24
32.024,8.396
32.028,8.472
32.032,8.22
32.036,8.1
32.04,8.288
32.044,8.432
32.048,8.28
32.052,8.032
32.056,8.172
32.06,8.352
32.064,8.184
32.068,7.968
32.072,8.052
32.076,8.236
32.08,8.18
32.084,7.904
32.088,7.856
32.092,8.032
32.096,8.172
32.1,8.12
32.104,8.456
32.108,9.34
32.112,10.036
32.116,9.9
32.12,9.52
32.124,9.452
32.128,8.984
32.132,8.132
32.136,7.704
32.14,7.948
32.144,8.176
32.148,8.072
32.152,7.92
32.156,8.212
32.16,8.292
32.164,8.188
32.168,7.916
32.172,8.124
32.176,8.164
32.18,8.18
32.184,7.96
32.188,7.968
32.192,8.172
32.196,8.24
32.2,8
32.204,7.872
32.208,8.216
32.212,8.276
32.216,8.052
32.22,7.908
32.224,8.304
32.228,8.28
32.232,8.072
32.236,7.9
32.24,8.3
32.244,8.252
32.248,8.18
32.252,7.992
32.256,8.308
32.26,8.272
32.264,8.24
32.268,8.012
32.272,8.24
32.276,8.296
32.28,8.28
32.284,8.056
32.288,8.096
32.292,8.364
32.296,8.408
32.3,8.112
32.304,8.016
32.308,8.32
32.312,8.416
32.316,8.236
32.32,8.104
32.324,8.496
32.328,8.452
32.332,8.264
32.336,8.128
32.34,8.56
32.344,8.552
32.348,8.432
32.352,8.268
32.356,8.668
32.36,8.664
32.364,8.644
32.368,8.452
32.372,8.62
32.376,8.764
32.38,8.808
32.384,8.58
32.388,8.6
32.392,8.872
32.396,8.94
32.4,8.7
32.404,8.668
32.408,8.984
32.412,8.992
32.416,8.752
32.42,8.612
32.424,8.96
32.428,8.928
32.432,8.716
32.436,8.496
32.44,8.856
32.444,8.72
32.448,8.564
32.452,8.312
32.456,8.556
32.46,8.48
32.464,8.42
32.468,8.204
32.472,8.316
32.476,8.396
32.48,8.36
32.484,8.104
32.488,8.096
32.492,8.292
32.496,8.332
32.5,8.08
32.504,7.964
32.508,8.332
32.512,8.328
32.516,8.088
32.52,7.96
32.524,8.356
32.528,8.32
32.532,8.14
32.536,7.972
32.54,8.38
32.544,8.292
32.548,8.2
32.552,8.008
32.556,8.3
32.56,8.304
32.564,8.248
32.568,8.052
32.572,8.208
32.576,8.296
32.58,8.364
32.584,8.124
32.588,8.084
32.592,8.352
32.596,8.392
32.6,8.144
32.604,8.032
32.608,8.408
32.612,8.42
32.616,8.196
32.62,8.06
32.624,8.452
32.628,8.412
32.632,8.224
32.636,8.088
32.64,8.456
32.644,8.356
32.648,8.244
32.652,8.064
32.656,8.388
32.66,8.38
32.664,8.332
32.668,8.072
32.672,8.22
32.676,8.344
32.68,8.36
32.684,8.112
32.688,8.04
32.692,8.348
32.696,8.392
32.7,8.152
32.704,8.004
32.708,8.38
32.712,8.332
32.716,8.096
32.72,7.996
32.724,8.428
32.728,8.372
32.732,8.208
32.736,8.02
32.74,8.412
32.744,8.356
32.748,8.244
32.752,8.02
32.756,8.344
32.76,8.332
32.764,8.26
32.768,8.052
32.772,8.16
32.776,8.316
32.78,8.304
32.784,8.104
32.788,8.088
32.792,8.384
32.796,8.356
32.8,8.096
32.804,7.984
32.808,8.396
32.812,8.396
32.816,8.14
32.82,7.988
32.824,8.388
32.828,8.38
32.832,8.192
32.836,8.032
32.84,8.432
32.844,8.34
32.848,8.236
32.852,8.032
32.856,8.32
32.86,8.356
32.864,8.312
32.868,8.06
32.872,8.164
32.876,8.356
32.88,8.336
32.884,8.084
32.888,8.04
32.892,8.364
32.896,8.364
32.9,8.116
32.904,8.012
32.908,8.456
32.912,8.356
32.916,8.136
32.92,8.024
32.924,8.496
32.928,8.424
32.932,8.324
32.936,8.192
32.94,8.6
32.944,8.5
32.948,8.392
32.952,8.264
32.956,8.508
32.96,8.552
32.964,8.476
32.968,8.18
32.972,8.24
32.976,8.492
32.98,8.464
32.984,8.216
32.988,8.148
32.992,8.416
32.996,8.4
33,8.14
33.004,8.016
33.008,8.444
33.012,8.372
33.016,8.12
33.02,7.952
33.024,8.364
33.028,8.168
33.032,7.96
33.036,7.904
33.04,8.532
33.044,8.888
33.048,9.464
33.052,9.844
33.056,10.132
33.06,9.852
33.064,9.484
33.068,8.772
33.072,8.18
33.076,8.096
33.08,8.08
33.084,7.956
33.088,7.98
33.092,8.424
33.096,8.436
33.1,8.124
33.104,8
33.108,8.408
33.112,8.336
33.116,8.152
33.12,8.032
33.124,8.464
33.128,8.356
33.132,8.18
33.136,7.976
33.14,8.34
33.144,8.312
33.148,8.18
33.152,8.02
33.156,8.316
33.16,8.452
33.164,8.356
33.168,8.06
33.172,8.088
33.176,8.332
33.18,8.308
33.184,8.04
33.188,8.036
33.192,8.432
33.196,8.376
33.2,8.124
33.204,8.064
33.208,8.504
33.212,8.392
33.216,8.24
33.22,8.136
33.224,8.516
33.228,8.456
33.232,8.288
33.236,8.16
33.24,8.524
33.244,8.48
33.248,8.392
33.252,8.2
33.256,8.46
33.26,8.584
33.264,8.552
33.268,8.328
33.272,8.356
33.276,8.632
33.28,8.64
33.284,8.432
33.288,8.384
33.292,8.808
33.296,8.772
33.3,8.552
33.304,8.496
33.308,9.008
33.312,8.908
33.316,8.708
33.32,8.628
33.324,9.08
33.328,8.98
33.332,8.848
33.336,8.736
33.34,9.108
33.344,9.128
33.348,9.028
33.352,8.824
33.356,9.028
33.36,9.156
33.364,9.04
33.368,8.768
33.372,8.788
33.376,9.008
33.38,8.864
33.384,8.604
33.388,8.516
33.392,8.844
33.396,8.676
33.4,8.388
33.404,8.252
33.408,8.704
33.412,8.556
33.416,8.304
33.42,8.148
33.424,8.6
33.428,8.456
33.432,8.296
33.436,8.128
33.44,8.42
33.444,8.38
33.448,8.28
33.452,8.116
33.456,8.276
33.46,8.372
33.464,8.308
33.468,8.104
33.472,8.144
33.476,8.456
33.48,8.408
33.484,8.14
33.488,8.06
33.492,8.48
33.496,8.416
33.5,8.164
33.504,8.088
33.508,8.54
33.512,8.42
33.516,8.216
33.52,8.144
33.524,8.576
33.528,8.444
33.532,8.3
33.536,8.152
33.54,8.48
33.544,8.472
33.548,8.352
33.552,8.152
33.556,8.336
33.56,8.484
33.564,8.412
33.568,8.188
33.572,8.2
33.576,8.512
33.58,8.448
33.584,8.208
33.588,8.156
33.592,8.58
33.596,8.44
33.6,8.196
33.604,8.12
33.608,8.572
33.612,8.396
33.616,8.224
33.62,8.116
33.624,8.52
33.628,8.428
33.632,8.264
33.636,8.128
33.64,8.452
33.644,8.42
33.648,8.32
33.652,8.096
33.656,8.256
33.66,8.424
33.664,8.352
33.668,8.124
33.672,8.124
33.676,8.468
33.68,8.368
33.684,8.144
33.688,8.084
33.692,8.524
33.696,8.388
33.7,8.192
33.704,8.088
33.708,8.568
33.712,8.392
33.716,8.188
33.72,8.1
33.724,8.52
33.728,8.376
33.732,8.248
33.736,8.096
33.74,8.384
33.744,8.392
33.748,8.268
33.752,8.136
33.756,8.252
33.76,8.444
33.764,8.348
33.768,8.136
33.772,8.164
33.776,8.476
33.78,8.364
33.784,8.132
33.788,8.032
33.792,8.488
33.796,8.36
33.8,8.14
33.804,8.072
33.808,8.56
33.812,8.392
33.816,8.184
33.82,8.088
33.824,8.5
33.828,8.356
33.832,8.236
33.836,8.088
33.84,8.404
33.844,8.464
33.848,8.356
33.852,8.18
33.856,8.344
33.86,8.564
33.864,8.456
33.868,8.268
33.872,8.332
33.876,8.688
33.88,8.572
33.884,8.312
33.888,8.236
33.892,8.596
33.896,8.488
33.9,8.284
33.904,8.188
33.908,8.704
33.912,8.452
33.916,8.22
33.92,8.076
33.924,8.496
33.928,8.364
33.932,8.176
33.936,8.06
33.94,8.32
33.944,8.356
33.948,8.164
33.952,7.86
33.956,8.056
33.96,8.428
33.964,8.624
33.968,8.956
33.972,9.704
33.976,10.408
33.98,10.084
33.984,9.516
33.988,9.06
33.992,8.872
33.996,8.22
34,7.892
34.004,7.892
34.008,8.48
34.012,8.372
34.016,8.224
34.02,8.132
34.024,8.472
34.028,8.388
34.032,8.208
34.036,8.084
34.04,8.312
34.044,8.372
34.048,8.252
34.052,8.06
34.056,8.192
34.06,8.448
34.064,8.304
34.068,8.044
34.072,8.076
34.076,8.488
34.08,8.34
34.084,8.112
34.088,8.084
34.092,8.524
34.096,8.364
34.1,8.152
34.104,8.08
34.108,8.56
34.112,8.432
34.116,8.248
34.12,8.088
34.124,8.384
34.128,8.364
34.132,8.24
34.136,8.1
34.14,8.312
34.144,8.448
34.148,8.32
34.152,8.12
34.156,8.288
34.16,8.544
34.164,8.456
34.168,8.156
34.172,8.232
34.176,8.648
34.18,8.512
34.184,8.292
34.188,8.248
34.192,8.736
34.196,8.56
34.2,8.38
34.204,8.348
34.208,8.808
34.212,8.656
34.216,8.524
34.22,8.468
34.224,8.884
34.228,8.844
34.232,8.684
34.236,8.576
34.24,8.852
34.244,8.976
34.248,8.888
34.252,8.712
34.256,8.788
34.26,9.124
34.264,8.968
34.268,8.816
34.272,8.812
34.276,9.196
34.28,9.024
34.284,8.796
34.288,8.76
34.292,9.168
34.296,8.916
34.3,8.68
34.304,8.564
34.308,8.96
34.312,8.736
34.316,8.532
34.32,8.38
34.324,8.676
34.328,8.592
34.332,8.44
34.336,8.248
34.34,8.388
34.344,8.528
34.348,8.308
34.352,8.108
34.356,8.1
34.36,8.436
34.364,8.324
34.368,8.132
34.372,8.2
34.376,8.508
34.38,8.368
34.384,8.136
34.388,8.08
34.392,8.508
34.396,8.328
34.4,8.164
34.404,8.076
34.408,8.536
34.412,8.304
34.416,8.164
34.42,8.04
34.424,8.348
34.428,8.38
34.432,8.22
34.436,8.068
34.44,8.24
34.444,8.388
34.448,8.224
34.452,8.052
34.456,8.128
34.46,8.448
34.464,8.328
34.468,8.148
34.472,8.148
34.476,8.528
34.48,8.316
34.484,8.116
34.488,8.044
34.492,8.492
34.496,8.3
34.5,8.14
34.504,8.084
34.508,8.548
34.512,8.352
34.516,8.212
34.52,8.1
34.524,8.404
34.528,8.396
34.532,8.244
34.536,8.092
34.54,8.264
34.544,8.436
34.548,8.288
34.552,8.092
34.556,8.168
34.56,8.52
34.564,8.328
34.568,8.124
34.572,8.136
34.576,8.592
34.58,8.324
34.584,8.14
34.588,8.128
34.592,8.612
34.596,8.336
34.6,8.124
34.604,8.104
34.608,8.62
34.612,8.468
34.616,8.22
34.62,8.12
34.624,8.352
34.628,8.412
34.632,8.212
34.636,8.124
34.64,8.224
34.644,8.444
34.648,8.284
34.652,8.08
34.656,8.152
34.66,8.528
34.664,8.32
34.668,8.12
34.672,8.136
34.676,8.552
34.68,8.36
34.684,8.176
34.688,8.128
34.692,8.588
34.696,8.396
34.7,8.176
34.704,8.14
34.708,8.544
34.712,8.384
34.716,8.244
34.72,8.136
34.724,8.428
34.728,8.436
34.732,8.296
34.736,8.136
34.74,8.252
34.744,8.492
34.748,8.312
34.752,8.132
34.756,8.132
34.76,8.516
34.764,8.352
34.768,8.12
34.772,8.14
34.776,8.592
34.78,8.392
34.784,8.228
34.788,8.228
34.792,8.732
34.796,8.48
34.8,8.272
34.804,8.228
34.808,8.768
34.812,8.644
34.816,8.504
34.82,8.364
34.824,8.556
34.828,8.604
34.832,8.376
34.836,8.2
34.84,8.34
34.844,8.604
34.848,8.448
34.852,8.232
34.856,8.2
34.86,8.604
34.864,8.436
34.868,8.212
34.872,8.176
34.876,8.616
34.88,8.308
34.884,8.08
34.888,7.976
34.892,8.568
34.896,8.436
34.9,8.4
34.904,8.72
34.908,9.82
34.912,10.108
34.916,9.816
34.92,9.34
34.924,9.188
34.928,8.668
34.932,8.128
34.936,7.82
34.94,7.984
34.944,8.38
34.948,8.276
34.952,8.124
34.956,8.132
34.96,8.516
34.964,8.284
34.968,8.088
34.972,8.08
34.976,8.564
34.98,8.316
34.984,8.088
34.988,8.06
34.992,8.544
34.996,8.332
35,8.1
35.004,8.016
35.008,8.416
35.012,8.36
35.016,8.228
35.02,8.088
35.024,8.304
35.028,8.384
35.032,8.212
35.036,8.052
35.04,8.14
35.044,8.464
35.048,8.268
35.052,8.06
35.056,8.1
35.06,8.568
35.064,8.316
35.068,8.088
35.072,8.084
35.076,8.604
35.08,8.348
35.084,8.148
35.088,8.1
35.092,8.62
35.096,8.416
35.1,8.212
35.104,8.176
35.108,8.62
35.112,8.552
35.116,8.372
35.12,8.156
35.124,8.392
35.128,8.684
35.132,8.44
35.136,8.288
35.14,8.364
35.144,8.728
35.148,8.532
35.152,8.392
35.156,8.536
35.16,8.936
35.164,8.692
35.168,8.536
35.172,8.52
35.176,9.132
35.18,8.86
35.184,8.64
35.188,8.704
35.192,9.212
35.196,8.944
35.2,8.828
35.204,8.708
35.208,9.148
35.212,9.068
35.216,8.868
35.22,8.716
35.224,8.828
35.228,9.012
35.232,8.8
35.236,8.58
35.24,8.608
35.244,8.936
35.248,8.624
35.252,8.26
35.256,8.436
35.26,8.872
35.264,8.484
35.268,8.192
35.272,8.216
35.276,8.728
35.28,8.36
35.284,8.18
35.288,8.116
35.292,8.6
35.296,8.42
35.3,8.228
35.304,8.132
35.308,8.452
35.312,8.376
35.316,8.168
35.32,8.052
35.324,8.284
35.328,8.504
35.332,8.244
35.336,8.048
35.34,8.168
35.344,8.508
35.348,8.216
35.352,8.056
35.356,8.072
35.36,8.6
35.364,8.296
35.368,8.108
35.372,8.08
35.376,8.652
35.38,8.304
35.384,8.076
35.388,8.116
35.392,8.616
35.396,8.356
35.4,8.152
35.404,8.1
35.408,8.456
35.412,8.428
35.416,8.132
35.42,8.092
35.424,8.268
35.428,8.524
35.432,8.236
35.436,8.056
35.44,8.192
35.444,8.58
35.448,8.332
35.452,8.084
35.456,8.12
35.46,8.596
35.464,8.232
35.468,8.104
35.472,8.12
35.476,8.632
35.48,8.304
35.484,8.108
35.488,8.064
35.492,8.496
35.496,8.384
35.5,8.152
35.504,8.076
35.508,8.376
35.512,8.344
35.516,8.132
35.52,8.012
35.524,8.172
35.528,8.42
35.532,8.208
35.536,8.084
35.54,8.164
35.544,8.516
35.548,8.196
35.552,7.968
35.556,8.088
35.56,8.6
35.564,8.34
35.568,8.148
35.572,8.2
35.576,8.676
35.58,8.308
35.584,8.092
35.588,8.092
35.592,8.584
35.596,8.364
35.6,8.116
35.604,8.104
35.608,8.4
35.612,8.42
35.616,8.208
35.62,8.104
35.624,8.192
35.628,8.392
35.632,8.228
35.636,8.076
35.64,8.156
35.644,8.548
35.648,8.192
35.652,8.008
35.656,8.12
35.66,8.632
35.664,8.288
35.668,8.08
35.672,8.12
35.676,8.616
35.68,8.252
35.684,8.08
35.688,8.128
35.692,8.572
35.696,8.348
35.7,8.144
35.704,8.16
35.708,8.428
35.712,8.504
35.716,8.24
35.72,8.192
35.724,8.408
35.728,8.668
35.732,8.332
35.736,8.108
35.74,8.18
35.744,8.568
35.748,8.328
35.752,8.124
35.756,8.128
35.76,8.564
35.764,8.172
35.768,8.06
35.772,8.072
35.776,8.524
35.78,8.188
35.784,7.976
35.788,7.948
35.792,8.356
35.796,8.196
35.8,7.928
35.804,7.816
35.808,8.188
35.812,8.524
35.816,8.736
35.82,9.264
35.824,9.78
35.828,9.888
35.832,9.356
35.836,8.876
35.84,8.404
35.844,8.296
35.848,7.8
35.852,7.64
35.856,7.792
35.86,8.364
35.864,8.12
35.868,8.012
35.872,8.024
35.876,8.412
35.88,8.18
35.884,8
35.888,7.964
35.892,8.268
35.896,8.196
35.9,7.948
35.904,7.896
35.908,8.232
35.912,8.34
35.916,8.1
35.92,7.98
35.924,8.12
35.928,8.356
35.932,8.064
35.936,7.924
35.94,8.064
35.944,8.388
35.948,8.14
35.952,8.004
35.956,8.096
35.96,8.44
35.964,8.292
35.968,8.024
35.972,8.072
35.976,8.372
35.98,8.292
35.984,8.028
35.988,8.036
35.992,8.372
35.996,8.356
36,8.092
36.004,7.992
36.008,8.264
36.012,8.476
36.016,8.208
36.02,8.096
36.024,8.328
36.028,8.516
36.032,8.312
36.036,8.132
36.04,8.32
36.044,8.592
36.048,8.436
36.052,8.176
36.056,8.312
36.06,8.7
36.064,8.564
36.068,8.372
36.072,8.456
36.076,8.764
36.08,8.74
36.084,8.504
36.088,8.54
36.092,8.852
36.096,8.924
36.1,8.628
36.104,8.564
36.108,8.836
36.112,9.044
36.116,8.76
36.12,8.656
36.124,8.876
36.128,9.056
36.132,8.824
36.136,8.636
36.14,8.784
36.144,8.976
36.148,8.708
36.152,8.424
36.156,8.492
36.16,8.688
36.164,8.524
36.168,8.292
36.172,8.304
36.176,8.512
36.18,8.408
36.184,8.136
36.188,8.136
36.192,8.388
36.196,8.364
36.2,8.06
36.204,7.992
36.208,8.192
36.212,8.328
36.216,8.048
36.22,7.98
36.224,8.196
36.228,8.36
36.232,8.132
36.236,7.996
36.24,8.132
36.244,8.404
36.248,8.152
36.252,7.952
36.256,8.1
36.26,8.384
36.264,8.2
36.268,8.004
36.272,8.1
36.276,8.36
36.28,8.328
36.284,8.052
36.288,8.052
36.292,8.304
36.296,8.364
36.3,8.12
36.304,8.024
36.308,8.308
36.312,8.396
36.316,8.124
36.32,8.004
36.324,8.248
36.328,8.44
36.332,8.148
36.336,7.98
36.34,8.212
36.344,8.456
36.348,8.216
36.352,8.028
36.356,8.132
36.36,8.384
36.364,8.248
36.368,8.02
36.372,8.044
36.376,8.36
36.38,8.256
36.384,8.04
36.388,8.044
36.392,8.316
36.396,8.356
36.4,8.032
36.404,7.988
36.408,8.256
36.412,8.368
36.416,8.108
36.42,7.964
36.424,8.144
36.428,8.36
36.432,8.128
36.436,7.952
36.44,8.14
36.444,8.376
36.448,8.168
36.452,7.996
36.456,8.088
36.46,8.38
36.464,8.232
36.468,8.02
36.472,8.044
36.476,8.304
36.48,8.276
36.484,8.02
36.488,8.004
36.492,8.28
36.496,8.328
36.5,8.06
36.504,8
36.508,8.232
36.512,8.34
36.516,8.076
36.52,7.98
36.524,8.188
36.528,8.364
36.532,8.12
36.536,7.976
36.54,8.18
36.544,8.416
36.548,8.196
36.552,7.992
36.556,8.164
36.56,8.464
36.564,8.364
36.568,8.12
36.572,8.184
36.576,8.488
36.58,8.436
36.584,8.24
36.588,8.268
36.592,8.484
36.596,8.468
36.6,8.1
36.604,8.1
36.608,8.328
36.612,8.436
36.616,8.156
36.62,7.98
36.624,8.156
36.628,8.36
36.632,8.132
36.636,7.956
36.64,8.068
36.644,8.288
36.648,8.068
36.652,7.908
36.656,7.892
36.66,8.108
36.664,8.076
36.668,8.028
36.672,8.432
36.676,9.256
36.68,9.948
36.684,9.944
36.688,9.696
36.692,9.648
36.696,9.216
36.7,8.272
36.704,7.768
36.708,7.936
36.712,8.14
36.716,7.924
36.72,7.92
36.724,8.204
36.728,8.392
36.732,8.14
36.736,7.992
36.74,8.14
36.744,8.376
36.748,8.18
36.752,7.972
36.756,8.088
36.76,8.348
36.764,8.204
36.768,7.98
36.772,8.06
36.776,8.324
36.78,8.268
36.784,8.044
36.788,8.008
36.792,8.272
36.796,8.324
36.8,8.084
36.804,8.052
36.808,8.252
36.812,8.38
36.816,8.08
36.82,8.036
36.824,8.224
36.828,8.404
36.832,8.2
36.836,8.036
36.84,8.232
36.844,8.456
36.848,8.204
36.852,8.036
36.856,8.132
36.86,8.476
36.864,8.34
36.868,8.156
36.872,8.196
36.876,8.468
36.88,8.392
36.884,8.244
36.888,8.188
36.892,8.488
36.896,8.524
36.9,8.248
36.904,8.244
36.908,8.552
36.912,8.676
36.916,8.388
36.92,8.32
36.924,8.556
36.928,8.8
36.932,8.536
36.936,8.456
36.94,8.66
36.944,8.956
36.948,8.716
36.952,8.572
36.956,8.716
36.96,9.052
36.964,8.876
36.968,8.712
36.972,8.8
36.976,9.072
36.98,8.964
36.984,8.748
36.988,8.728
36.992,9.036
36.996,8.98
37,8.636
37.004,8.58
37.008,8.78
37.012,8.812
37.016,8.488
37.02,8.344
37.024,8.488
37.028,8.636
37.032,8.308
37.036,8.128
37.04,8.28
37.044,8.58
37.048,8.196
37.052,8.044
37.056,8.172
37.06,8.492
37.064,8.168
37.068,7.988
37.072,8.076
37.076,8.388
37.08,8.192
37.084,7.976
37.088,8.012
37.092,8.312
37.096,8.276
37.1,8.06
37.104,7.992
37.108,8.228
37.112,8.332
37.116,8.044
37.12,7.98
37.124,8.2
37.128,8.452
37.132,8.1
37.136,8.024
37.14,8.192
37.144,8.532
37.148,8.136
37.152,8.016
37.156,8.112
37.16,8.512
37.164,8.18
37.168,8.044
37.172,8.12
37.176,8.436
37.18,8.24
37.184,8.056
37.188,8.08
37.192,8.352
37.196,8.284
37.2,8.036
37.204,8.044
37.208,8.276
37.212,8.36
37.216,8.052
37.22,8.012
37.224,8.204
37.228,8.444
37.232,8.084
37.236,8.02
37.24,8.176
37.244,8.52
37.248,8.1
37.252,8.004
37.256,8.092
37.26,8.5
37.264,8.124
37.268,8.032
37.272,8.08
37.276,8.388
37.28,8.184
37.284,7.996
37.288,8.032
37.292,8.3
37.296,8.264
37.3,8.036
37.304,8.028
37.308,8.232
37.312,8.388
37.316,8.064
37.32,8
37.324,8.192
37.328,8.5
37.332,8.08
37.336,8.02
37.34,8.18
37.344,8.504
37.348,8.068
37.352,8.012
37.356,8.108
37.36,8.48
37.364,8.14
37.368,8.02
37.372,8.08
37.376,8.408
37.38,8.216
37.384,8.028
37.388,8.024
37.392,8.28
37.396,8.268
37.4,8.048
37.404,8.012
37.408,8.268
37.412,8.436
37.416,8.14
37.42,8.104
37.424,8.312
37.428,8.608
37.432,8.188
37.436,8.18
37.44,8.356
37.444,8.76
37.448,8.272
37.452,8.172
37.456,8.188
37.46,8.536
37.464,8.256
37.468,8.108
37.472,8.212
37.476,8.476
37.48,8.208
37.484,8.036
37.488,8.036
37.492,8.272
37.496,8.264
37.5,8.036
37.504,7.992
37.508,8.184
37.512,8.32
37.516,7.84
37.52,7.828
37.524,8.16
37.528,8.712
37.532,8.62
37.536,9.208
37.54,9.84
37.544,10.228
37.548,9.504
37.552,9.08
37.556,8.604
37.56,8.42
37.564,7.872
37.568,7.748
37.572,7.94
37.576,8.332
37.58,8.248
37.584,8.076
37.588,8.064
37.592,8.28
37.596,8.264
37.6,7.992
37.604,7.968
37.608,8.188
37.612,8.36
37.616,7.996
37.62,7.956
37.624,8.152
37.628,8.452
37.632,8.08
37.636,7.988
37.64,8.152
37.644,8.512
37.648,8.072
37.652,7.984
37.656,8.112
37.66,8.472
37.664,8.14
37.668,8
37.672,8.064
37.676,8.384
37.68,8.22
37.684,8.032
37.688,8.016
37.692,8.308
37.696,8.348
37.7,8.072
37.704,8.084
37.708,8.328
37.712,8.484
37.716,8.104
37.72,8.1
37.724,8.304
37.728,8.644
37.732,8.204
37.736,8.16
37.74,8.312
37.744,8.692
37.748,8.264
37.752,8.184
37.756,8.32
37.76,8.66
37.764,8.42
37.768,8.312
37.772,8.38
37.776,8.664
37.78,8.58
37.784,8.376
37.788,8.416
37.792,8.736
37.796,8.82
37.8,8.56
37.804,8.576
37.808,8.82
37.812,9.028
37.816,8.668
37.82,8.612
37.824,8.86
37.828,9.208
37.832,8.772
37.836,8.716
37.84,8.868
37.844,9.248
37.848,8.816
37.852,8.708
37.856,8.748
37.86,9.036
37.864,8.692
37.868,8.496
37.872,8.532
37.876,8.724
37.88,8.56
37.884,8.3
37.888,8.272
37.892,8.488
37.896,8.484
37.9,8.196
37.904,8.16
37.908,8.344
37.912,8.544
37.916,8.084
37.92,8.068
37.924,8.236
37.928,8.58
37.932,8.08
37.936,8.004
37.94,8.164
37.944,8.54
37.948,8.104
37.952,8.004
37.956,8.116
37.96,8.42
37.964,8.172
37.968,8.02
37.972,8.076
37.976,8.376
37.98,8.268
37.984,8.036
37.988,8.024
37.992,8.296
37.996,8.372
38,8.048
38.004,8.084
38.008,8.272
38.012,8.488
38.016,8.056
38.02,8.008
38.024,8.2
38.028,8.552
38.032,8.116
38.036,8.02
38.04,8.212
38.044,8.568
38.048,8.212
38.052,8.088
38.056,8.208
38.06,8.516
38.064,8.2
38.068,8.036
38.072,8.132
38.076,8.42
38.08,8.284
38.084,7.956
38.088,7.996
38.092,8.224
38.096,8.328
38.1,7.976
38.104,8.048
38.108,8.356
38.112,8.552
38.116,8.084
38.12,8.072
38.124,8.216
38.128,8.504
38.132,7.916
38.136,7.832
38.14,8.056
38.144,8.444
38.148,8.056
38.152,7.92
38.156,7.976
38.16,8.236
38.164,7.952
38.168,7.848
38.172,7.96
38.176,8.252
38.18,8.148
38.184,7.896
38.188,7.932
38.192,8.224
38.196,8.316
38.2,7.94
38.204,7.924
38.208,8.128
38.212,8.376
38.216,7.916
38.22,7.884
38.224,8.092
38.228,8.468
38.232,7.956
38.236,7.888
38.24,8.036
38.244,8.404
38.248,8.028
38.252,7.916
38.256,8.02
38.26,8.316
38.264,8.056
38.268,7.892
38.272,7.988
38.276,8.284
38.28,8.228
38.284,8.012
38.288,8.084
38.292,8.296
38.296,8.376
38.3,8.104
38.304,8.132
38.308,8.36
38.312,8.636
38.316,8.144
38.32,8.116
38.324,8.244
38.328,8.576
38.332,8.044
38.336,7.992
38.34,8.148
38.344,8.464
38.348,8.108
38.352,7.988
38.356,8.048
38.36,8.292
38.364,8.06
38.368,7.896
38.372,7.996
38.376,8.22
38.38,8.064
38.384,7.672
38.388,7.792
38.392,8.196
38.396,8.66
38.4,8.86
38.404,9.596
38.408,10.152
38.412,10.172
38.416,9.332
38.42,8.824
38.424,8.344
38.428,8.232
38.432,7.712
38.436,7.728
38.44,7.924
38.444,8.344
38.448,8.052
38.452,7.956
38.456,8.028
38.46,8.288
38.464,8.08
38.468,7.92
38.472,8.02
38.476,8.276
38.48,8.228
38.484,7.948
38.488,7.996
38.492,8.208
38.496,8.332
38.5,7.9
38.504,7.94
38.508,8.148
38.512,8.42
38.516,7.916
38.52,7.932
38.524,8.088
38.528,8.448
38.532,7.94
38.536,7.932
38.54,8.108
38.544,8.42
38.548,8.072
38.552,7.964
38.556,8.108
38.56,8.376
38.564,8.188
38.568,8.04
38.572,8.132
38.576,8.368
38.58,8.332
38.584,8.044
38.588,8.08
38.592,8.316
38.596,8.5
38.6,8.108
38.604,8.132
38.608,8.356
38.612,8.668
38.616,8.18
38.62,8.208
38.624,8.4
38.628,8.744
38.632,8.284
38.636,8.232
38.64,8.444
38.644,8.784
38.648,8.456
38.652,8.376
38.656,8.5
38.66,8.828
38.664,8.672
38.668,8.5
38.672,8.604
38.676,8.86
38.68,8.888
38.684,8.612
38.688,8.704
38.692,8.968
38.696,9.092
38.7,8.732
38.704,8.732
38.708,8.972
38.712,9.264
38.716,8.716
38.72,8.656
38.724,8.82
38.728,9.084
38.732,8.556
38.736,8.472
38.74,8.556
38.744,8.76
38.748,8.396
38.752,8.248
38.756,8.336
38.76,8.528
38.764,8.368
38.768,8.14
38.772,8.216
38.776,8.432
38.78,8.392
38.784,8.044
38.788,8.084
38.792,8.348
38.796,8.504
38.8,8.032
38.804,8.036
38.808,8.26
38.812,8.564
38.816,8.052
38.82,8.048
38.824,8.228
38.828,8.508
38.832,8.092
38.836,8.068
38.84,8.192
38.844,8.46
38.848,8.132
38.852,8.02
38.856,8.16
38.86,8.432
38.864,8.272
38.868,8.044
38.872,8.144
38.876,8.392
38.88,8.396
38.884,8.068
38.888,8.112
38.892,8.356
38.896,8.528
38.9,8.072
38.904,8.088
38.908,8.32
38.912,8.612
38.916,8.076
38.92,8.072
38.924,8.276
38.928,8.58
38.932,8.104
38.936,8.048
38.94,8.216
38.944,8.48
38.948,8.156
38.952,8.028
38.956,8.16
38.96,8.408
38.964,8.208
38.968,8.036
38.972,8.076
38.976,8.328
38.98,8.352
38.984,7.968
38.988,8.056
38.992,8.308
38.996,8.468
39,7.972
39.004,8.016
39.008,8.256
39.012,8.56
39.016,8.004
39.02,7.992
39.024,8.184
39.028,8.504
39.032,8.06
39.036,7.972
39.04,8.148
39.044,8.392
39.048,8.12
39.052,7.976
39.056,8.116
39.06,8.352
39.064,8.208
39.068,7.952
39.072,8.064
39.076,8.296
39.08,8.332
39.084,7.964
39.088,8.028
39.092,8.28
39.096,8.468
39.1,8.008
39.104,8.016
39.108,8.204
39.112,8.504
39.116,8.008
39.12,7.984
39.124,8.184
39.128,8.512
39.132,8.1
39.136,8.084
39.14,8.256
39.144,8.54
39.148,8.232
39.152,8.112
39.156,8.308
39.16,8.536
39.164,8.444
39.168,8.156
39.172,8.188
39.176,8.4
39.18,8.476
39.184,8.076
39.188,8.096
39.192,8.332
39.196,8.508
39.2,7.976
