0,7.604
0.004,7.408
0.008,7.912
0.012,8.176
0.016,7.612
0.02,7.34
0.024,7.872
0.028,8.228
0.032,7.708
0.036,7.288
0.04,7.804
0.044,8.232
0.048,7.764
0.052,7.368
0.056,7.716
0.06,8.168
0.064,7.888
0.068,7.44
0.072,7.584
0.076,8.02
0.08,7.968
0.084,7.524
0.088,7.48
0.092,7.944
0.096,8.124
0.1,7.58
0.104,7.404
0.108,7.896
0.112,8.192
0.116,7.604
0.12,7.308
0.124,7.856
0.128,8.212
0.132,7.66
0.136,7.312
0.14,7.776
0.144,8.192
0.148,7.764
0.152,7.36
0.156,7.716
0.16,8.116
0.164,7.852
0.168,7.432
0.172,7.588
0.176,8.04
0.18,8.012
0.184,7.54
0.188,7.504
0.192,7.928
0.196,8.128
0.2,7.66
0.204,7.484
0.208,7.976
0.212,8.244
0.216,7.672
0.22,7.364
0.224,7.96
0.228,8.348
0.232,7.796
0.236,7.448
0.24,7.884
0.244,8.28
0.248,7.892
0.252,7.424
0.256,7.792
0.26,8.22
0.264,7.984
0.268,7.56
0.272,7.664
0.276,8.064
0.28,8.004
0.284,7.464
0.288,7.448
0.292,7.896
0.296,8.076
0.3,7.568
0.304,7.364
0.308,7.888
0.312,8.16
0.316,7.592
0.32,7.288
0.324,7.784
0.328,8.12
0.332,7.56
0.336,7.14
0.34,7.668
0.344,8.26
0.348,8.34
0.352,8.816
0.356,9.988
0.36,11.208
0.364,11.076
0.368,10.124
0.372,9.508
0.376,9.092
0.38,8.244
0.384,7.288
0.388,7.048
0.392,7.392
0.396,7.64
0.4,7.252
0.404,7.252
0.408,7.9
0.412,8.332
0.416,7.808
0.42,7.468
0.424,7.94
0.428,8.344
0.432,7.804
0.436,7.46
0.44,7.932
0.444,8.348
0.448,7.94
0.452,7.528
0.456,7.9
0.46,8.308
0.464,8.04
0.468,7.64
0.472,7.808
0.476,8.224
0.48,8.224
0.484,7.792
0.488,7.72
0.492,8.176
0.496,8.4
0.5,7.912
0.504,7.68
0.508,8.22
0.512,8.544
0.516,8.016
0.52,7.692
0.524,8.248
0.528,8.628
0.532,8.132
0.536,7.772
0.54,8.268
0.544,8.744
0.548,8.356
0.552,7.952
0.556,8.308
0.56,8.78
0.564,8.6
0.568,8.224
0.572,8.36
0.576,8.86
0.58,8.936
0.584,8.484
0.588,8.448
0.592,8.928
0.596,9.156
0.6,8.704
0.604,8.516
0.608,9.092
0.612,9.44
0.616,8.908
0.62,8.608
0.624,9.1
0.628,9.452
0.632,8.856
0.636,8.432
0.64,8.792
0.644,9.112
0.648,8.584
0.652,8.064
0.656,8.328
0.66,8.648
0.664,8.324
0.668,7.816
0.672,7.928
0.676,8.288
0.68,8.248
0.684,7.68
0.688,7.588
0.692,8.008
0.696,8.144
0.7,7.624
0.704,7.38
0.708,7.892
0.712,8.184
0.716,7.612
0.72,7.288
0.724,7.864
0.728,8.228
0.732,7.692
0.736,7.316
0.74,7.776
0.744,8.192
0.748,7.772
0.752,7.4
0.756,7.736
0.76,8.124
0.764,7.884
0.768,7.448
0.772,7.572
0.776,8.02
0.78,8.02
0.784,7.6
0.788,7.512
0.792,7.988
0.796,8.164
0.8,7.636
0.804,7.432
0.808,7.932
0.812,8.22
0.816,7.68
0.82,7.38
0.824,7.888
0.828,8.292
0.832,7.744
0.836,7.4
0.84,7.848
0.844,8.232
0.848,7.82
0.852,7.408
0.856,7.724
0.86,8.14
0.864,7.904
0.868,7.452
0.872,7.608
0.876,8.04
0.88,8.02
0.884,7.544
0.888,7.504
0.892,7.968
0.896,8.164
0.9,7.604
0.904,7.372
0.908,7.892
0.912,8.236
0.916,7.704
0.92,7.36
0.924,7.848
0.928,8.224
0.932,7.7
0.936,7.332
0.94,7.788
0.944,8.196
0.948,7.792
0.952,7.388
0.956,7.692
0.96,8.128
0.964,7.884
0.968,7.44
0.972,7.596
0.976,8.016
0.98,7.992
0.984,7.572
0.988,7.456
0.992,7.908
0.996,8.092
1,7.596
1.004,7.344
1.008,7.876
1.012,8.208
1.016,7.612
1.02,7.308
1.024,7.824
1.028,8.224
1.032,7.672
1.036,7.328
1.04,7.768
1.044,8.192
1.048,7.78
1.052,7.372
1.056,7.7
1.06,8.112
1.064,7.884
1.068,7.456
1.072,7.576
1.076,8.004
1.08,8.004
1.084,7.524
1.088,7.508
1.092,7.956
1.096,8.16
1.1,7.62
1.104,7.372
1.108,7.904
1.112,8.236
1.116,7.684
1.12,7.424
1.124,7.928
1.128,8.344
1.132,7.772
1.136,7.42
1.14,7.916
1.144,8.332
1.148,7.944
1.152,7.488
1.156,7.812
1.16,8.244
1.164,8.016
1.168,7.584
1.172,7.7
1.176,8.168
1.18,8.18
1.184,7.664
1.188,7.544
1.192,7.964
1.196,8.124
1.2,7.624
1.204,7.36
1.208,7.868
1.212,8.196
1.216,7.66
1.22,7.304
1.224,7.828
1.228,8.2
1.232,7.688
1.236,7.3
1.24,7.744
1.244,8.144
1.248,7.692
1.252,7.22
1.256,7.604
1.26,8.176
1.264,8.46
1.268,8.856
1.272,9.76
1.276,10.952
1.28,11.12
1.284,9.992
1.288,9.132
1.292,8.796
1.296,8.296
1.3,7.488
1.304,7.076
1.308,7.428
1.312,7.716
1.316,7.308
1.32,7.164
1.324,7.828
1.328,8.344
1.332,7.876
1.336,7.5
1.34,7.972
1.344,8.372
1.348,7.964
1.352,7.548
1.356,7.872
1.36,8.312
1.364,8.116
1.368,7.7
1.372,7.812
1.376,8.248
1.38,8.284
1.384,7.784
1.388,7.716
1.392,8.212
1.396,8.392
1.4,7.868
1.404,7.628
1.408,8.18
1.412,8.52
1.416,8.012
1.42,7.636
1.424,8.184
1.428,8.596
1.432,8.1
1.436,7.7
1.44,8.176
1.444,8.66
1.448,8.292
1.452,7.888
1.456,8.196
1.46,8.672
1.464,8.496
1.468,8.08
1.472,8.204
1.476,8.704
1.48,8.76
1.484,8.32
1.488,8.276
1.492,8.812
1.496,9.036
1.5,8.556
1.504,8.356
1.508,8.932
1.512,9.3
1.516,8.792
1.52,8.5
1.524,9.056
1.528,9.456
1.532,8.992
1.536,8.608
1.54,9.048
1.544,9.44
1.548,9
1.552,8.488
1.556,8.716
1.56,9.084
1.564,8.736
1.568,8.184
1.572,8.204
1.576,8.528
1.58,8.5
1.584,7.984
1.588,7.792
1.592,8.196
1.596,8.344
1.6,7.78
1.604,7.516
1.608,8.008
1.612,8.32
1.616,7.74
1.62,7.408
1.624,7.92
1.628,8.288
1.632,7.76
1.636,7.356
1.64,7.812
1.644,8.228
1.648,7.856
1.652,7.408
1.656,7.732
1.66,8.148
1.664,7.996
1.668,7.5
1.672,7.56
1.676,8.04
1.68,8.072
1.684,7.624
1.688,7.52
1.692,7.984
1.696,8.18
1.7,7.636
1.704,7.432
1.708,7.936
1.712,8.252
1.716,7.692
1.72,7.376
1.724,7.908
1.728,8.276
1.732,7.736
1.736,7.416
1.74,7.868
1.744,8.248
1.748,7.864
1.752,7.416
1.756,7.704
1.76,8.144
1.764,7.948
1.768,7.504
1.772,7.608
1.776,8.072
1.78,8.056
1.784,7.576
1.788,7.488
1.792,7.952
1.796,8.124
1.8,7.6
1.804,7.372
1.808,7.88
1.812,8.212
1.816,7.632
1.82,7.324
1.824,7.868
1.828,8.228
1.832,7.696
1.836,7.324
1.84,7.72
1.844,8.132
1.848,7.732
1.852,7.364
1.856,7.672
1.86,8.068
1.864,7.872
1.868,7.424
1.872,7.524
1.876,7.976
1.88,7.964
1.884,7.496
1.888,7.424
1.892,7.896
1.896,8.108
1.9,7.536
1.904,7.332
1.908,7.836
1.912,8.132
1.916,7.584
1.92,7.284
1.924,7.792
1.928,8.172
1.932,7.664
1.936,7.272
1.94,7.704
1.944,8.14
1.948,7.732
1.952,7.352
1.956,7.652
1.96,8.08
1.964,7.848
1.968,7.368
1.972,7.532
1.976,7.972
1.98,7.952
1.984,7.452
1.988,7.404
1.992,7.908
1.996,8.104
2,7.56
2.004,7.288
2.008,7.856
2.012,8.148
2.016,7.576
2.02,7.264
2.024,7.804
2.028,8.196
2.032,7.656
2.036,7.308
2.04,7.76
2.044,8.144
2.048,7.732
2.052,7.324
2.056,7.66
2.06,8.18
2.064,7.992
2.068,7.52
2.072,7.62
2.076,8.036
2.08,8.024
2.084,7.592
2.088,7.524
2.092,8.04
2.096,8.212
2.1,7.672
2.104,7.444
2.108,7.948
2.112,8.272
2.116,7.688
2.12,7.344
2.124,7.92
2.128,8.324
2.132,7.752
2.136,7.324
2.14,7.744
2.144,8.128
2.148,7.728
2.152,7.308
2.156,7.648
2.16,8.076
2.164,7.848
2.168,7.376
2.172,7.5
2.176,7.936
2.18,7.936
2.184,7.46
2.188,7.356
2.192,7.804
2.196,7.956
2.2,7.436
2.204,7.328
2.208,8.284
2.212,9.448
2.216,9.764
2.22,10.228
2.224,11.044
2.228,10.972
2.232,9.78
2.236,8.504
2.24,8.072
2.244,7.976
2.248,7.356
2.252,6.808
2.256,7.064
2.26,7.72
2.264,7.72
2.268,7.436
2.272,7.644
2.276,8.12
2.28,8.12
2.284,7.64
2.288,7.54
2.292,8.064
2.296,8.24
2.3,7.736
2.304,7.496
2.308,8.044
2.312,8.356
2.316,7.788
2.32,7.452
2.324,7.992
2.328,8.392
2.332,7.864
2.336,7.548
2.34,7.968
2.344,8.392
2.348,8
2.352,7.62
2.356,7.94
2.36,8.372
2.364,8.16
2.368,7.768
2.372,7.896
2.376,8.356
2.38,8.396
2.384,7.916
2.388,7.892
2.392,8.34
2.396,8.576
2.4,8.06
2.404,7.876
2.408,8.464
2.412,8.76
2.416,8.232
2.42,7.94
2.424,8.52
2.428,8.944
2.432,8.44
2.436,8.152
2.44,8.624
2.444,9.12
2.448,8.748
2.452,8.388
2.456,8.736
2.46,9.2
2.464,9.036
2.468,8.632
2.472,8.784
2.476,9.256
2.48,9.28
2.484,8.792
2.488,8.652
2.492,9.1
2.496,9.228
2.5,8.628
2.504,8.3
2.508,8.72
2.512,8.936
2.516,8.268
2.52,7.844
2.524,8.276
2.528,8.624
2.532,8.012
2.536,7.588
2.54,7.996
2.544,8.336
2.548,7.904
2.552,7.488
2.556,7.752
2.56,8.164
2.564,7.928
2.568,7.472
2.572,7.58
2.576,8.028
2.58,8.02
2.584,7.536
2.588,7.44
2.592,7.916
2.596,8.136
2.6,7.612
2.604,7.372
2.608,7.856
2.612,8.208
2.616,7.66
2.62,7.312
2.624,7.84
2.628,8.216
2.632,7.704
2.636,7.324
2.64,7.784
2.644,8.2
2.648,7.8
2.652,7.38
2.656,7.736
2.66,8.136
2.664,7.908
2.668,7.448
2.672,7.588
2.676,8.044
2.68,8.052
2.684,7.58
2.688,7.552
2.692,7.968
2.696,8.144
2.7,7.612
2.704,7.388
2.708,7.888
2.712,8.208
2.716,7.656
2.72,7.292
2.724,7.82
2.728,8.22
2.732,7.696
2.736,7.3
2.74,7.732
2.744,8.172
2.748,7.832
2.752,7.372
2.756,7.648
2.76,8.076
2.764,7.832
2.768,7.392
2.772,7.56
2.776,7.964
2.78,7.956
2.784,7.484
2.788,7.428
2.792,7.88
2.796,8.08
2.8,7.528
2.804,7.324
2.808,7.82
2.812,8.12
2.816,7.564
2.82,7.264
2.824,7.792
2.828,8.18
2.832,7.672
2.836,7.292
2.84,7.708
2.844,8.096
2.848,7.708
2.852,7.332
2.856,7.636
2.86,8.06
2.864,7.816
2.868,7.388
2.872,7.5
2.876,7.948
2.88,7.928
2.884,7.452
2.888,7.368
2.892,7.876
2.896,8.08
2.9,7.548
2.904,7.296
2.908,7.816
2.912,8.144
2.916,7.588
2.92,7.256
2.924,7.74
2.928,8.136
2.932,7.624
2.936,7.248
2.94,7.736
2.944,8.136
2.948,7.708
2.952,7.288
2.956,7.604
2.96,8.048
2.964,7.832
2.968,7.356
2.972,7.508
2.976,7.952
2.98,7.98
2.984,7.48
2.988,7.372
2.992,7.872
2.996,8.06
3,7.504
3.004,7.296
3.008,7.816
3.012,8.136
3.016,7.58
3.02,7.268
3.024,7.808
3.028,8.148
3.032,7.644
3.036,7.32
3.04,7.8
3.044,8.22
3.048,7.812
3.052,7.424
3.056,7.712
3.06,8.136
3.064,7.916
3.068,7.512
3.072,7.684
3.076,8.064
3.08,8.056
3.084,7.548
3.088,7.516
3.092,7.968
3.096,8.148
3.1,7.648
3.104,7.46
3.108,7.928
3.112,8.18
3.116,7.608
3.12,7.272
3.124,7.788
3.128,8.156
3.132,7.668
3.136,7.248
3.14,7.696
3.144,8.108
3.148,7.696
3.152,7.296
3.156,7.6
3.16,8.032
3.164,7.788
3.168,7.284
3.172,7.384
3.176,7.828
3.18,7.956
3.184,7.92
3.188,8.692
3.192,10.044
3.196,11.048
3.2,10.844
3.204,10.22
3.208,9.992
3.212,9.4
3.216,7.976
3.22,7.112
3.224,7.372
3.228,7.636
3.232,7.156
3.236,6.948
3.24,7.596
3.244,8.168
3.248,7.856
3.252,7.472
3.256,7.784
3.26,8.196
3.264,7.996
3.268,7.54
3.272,7.708
3.276,8.164
3.28,8.12
3.284,7.668
3.288,7.616
3.292,8.1
3.296,8.256
3.3,7.74
3.304,7.532
3.308,8.084
3.312,8.388
3.316,7.84
3.32,7.504
3.324,8.076
3.328,8.44
3.332,7.944
3.336,7.576
3.34,8.048
3.344,8.504
3.348,8.076
3.352,7.68
3.356,8.012
3.36,8.528
3.364,8.284
3.368,7.84
3.372,8.016
3.376,8.476
3.38,8.496
3.384,8.052
3.388,8.024
3.392,8.524
3.396,8.74
3.4,8.252
3.404,8.064
3.408,8.64
3.412,8.992
3.416,8.48
3.42,8.22
3.424,8.776
3.428,9.24
3.432,8.704
3.436,8.356
3.44,8.888
3.444,9.316
3.448,8.972
3.452,8.568
3.456,8.932
3.46,9.348
3.464,9.108
3.468,8.632
3.472,8.708
3.476,9.044
3.48,8.952
3.484,8.36
3.488,8.192
3.492,8.528
3.496,8.708
3.5,8.076
3.504,7.724
3.508,8.204
3.512,8.448
3.516,7.8
3.52,7.472
3.524,7.988
3.528,8.288
3.532,7.72
3.536,7.324
3.54,7.796
3.544,8.22
3.548,7.792
3.552,7.36
3.556,7.668
3.56,8.096
3.564,7.84
3.568,7.42
3.572,7.568
3.576,7.996
3.58,8
3.584,7.56
3.588,7.448
3.592,7.924
3.596,8.124
3.6,7.564
3.604,7.356
3.608,7.88
3.612,8.196
3.616,7.676
3.62,7.324
3.624,7.852
3.628,8.24
3.632,7.724
3.636,7.316
3.64,7.776
3.644,8.22
3.648,7.808
3.652,7.408
3.656,7.724
3.66,8.14
3.664,7.944
3.668,7.5
3.672,7.568
3.676,8.024
3.68,8.02
3.684,7.556
3.688,7.476
3.692,7.948
3.696,8.132
3.7,7.576
3.704,7.376
3.708,7.884
3.712,8.204
3.716,7.628
3.72,7.328
3.724,7.804
3.728,8.192
3.732,7.644
3.736,7.296
3.74,7.752
3.744,8.172
3.748,7.768
3.752,7.304
3.756,7.628
3.76,8.044
3.764,7.808
3.768,7.392
3.772,7.512
3.776,7.98
3.78,7.952
3.784,7.468
3.788,7.44
3.792,7.888
3.796,8.088
3.8,7.508
3.804,7.3
3.808,7.808
3.812,8.136
3.816,7.556
3.82,7.256
3.824,7.812
3.828,8.208
3.832,7.628
3.836,7.228
3.84,7.672
3.844,8.128
3.848,7.72
3.852,7.308
3.856,7.612
3.86,8.048
3.864,7.804
3.868,7.368
3.872,7.5
3.876,7.956
3.88,7.956
3.884,7.472
3.888,7.404
3.892,7.852
3.896,8.032
3.9,7.564
3.904,7.32
3.908,7.844
3.912,8.144
3.916,7.54
3.92,7.26
3.924,7.792
3.928,8.152
3.932,7.64
3.936,7.276
3.94,7.716
3.944,8.108
3.948,7.712
3.952,7.296
3.956,7.62
3.96,8.052
3.964,7.84
3.968,7.388
3.972,7.508
3.976,7.956
3.98,7.984
3.984,7.468
3.988,7.416
3.992,7.884
3.996,8.076
4,7.532
4.004,7.308
4.008,7.848
4.012,8.136
4.016,7.588
4.02,7.26
4.024,7.816
4.028,8.212
4.032,7.704
4.036,7.356
4.04,7.84
4.044,8.228
4.048,7.828
4.052,7.388
4.056,7.752
4.06,8.22
4.064,7.98
4.068,7.54
4.072,7.652
4.076,8.1
4.08,8.068
4.084,7.56
4.088,7.504
4.092,7.964
4.096,8.192
4.1,7.656
4.104,7.428
4.108,7.892
4.112,8.18
4.116,7.56
4.12,7.244
4.124,7.796
4.128,8.184
4.132,7.632
4.136,7.26
4.14,7.708
4.144,8.12
4.148,7.704
4.152,7.324
4.156,7.664
4.16,8.016
4.164,7.688
4.168,7.244
4.172,7.424
4.176,7.992
4.18,8.416
4.184,8.764
4.188,9.584
4.192,10.852
4.196,11.36
4.2,10.372
4.204,9.428
4.208,9.104
4.212,8.568
4.216,7.456
4.22,6.888
4.224,7.292
4.228,7.692
4.232,7.296
4.236,7.168
4.24,7.772
4.244,8.272
4.248,7.816
4.252,7.44
4.256,7.764
4.26,8.216
4.264,7.964
4.268,7.56
4.272,7.716
4.276,8.164
4.28,8.12
4.284,7.624
4.288,7.608
4.292,8.064
4.296,8.24
4.3,7.764
4.304,7.544
4.308,8.072
4.312,8.356
4.316,7.824
4.32,7.528
4.324,8.072
4.328,8.476
4.332,7.936
4.336,7.568
4.34,8.056
4.344,8.496
4.348,8.124
4.352,7.704
4.356,8.02
4.36,8.496
4.364,8.272
4.368,7.892
4.372,8.076
4.376,8.54
4.38,8.516
4.384,8.092
4.388,8.024
4.392,8.536
4.396,8.78
4.4,8.264
4.404,8.104
4.408,8.696
4.412,9.032
4.416,8.52
4.42,8.248
4.424,8.828
4.428,9.232
4.432,8.744
4.436,8.424
4.44,8.932
4.444,9.368
4.448,9
4.452,8.616
4.456,8.944
4.46,9.312
4.464,9.056
4.468,8.528
4.472,8.584
4.476,8.956
4.48,8.856
4.484,8.244
4.488,8.096
4.492,8.472
4.496,8.536
4.5,7.924
4.504,7.644
4.508,8.108
4.512,8.384
4.516,7.78
4.52,7.42
4.524,7.908
4.528,8.28
4.532,7.716
4.536,7.316
4.54,7.8
4.544,8.212
4.548,7.8
4.552,7.38
4.556,7.696
4.56,8.108
4.564,7.864
4.568,7.432
4.572,7.576
4.576,8.008
4.58,8.012
4.584,7.524
4.588,7.444
4.592,7.92
4.596,8.1
4.6,7.572
4.604,7.36
4.608,7.872
4.612,8.196
4.616,7.644
4.62,7.324
4.624,7.848
4.628,8.184
4.632,7.632
4.636,7.284
4.64,7.732
4.644,8.152
4.648,7.732
4.652,7.344
4.656,7.68
4.66,8.108
4.664,7.892
4.668,7.46
4.672,7.588
4.676,8.016
4.68,8.02
4.684,7.552
4.688,7.488
4.692,7.96
4.696,8.136
4.7,7.588
4.704,7.372
4.708,7.888
4.712,8.176
4.716,7.6
4.72,7.296
4.724,7.824
4.728,8.192
4.732,7.664
4.736,7.288
4.74,7.732
4.744,8.156
4.748,7.744
4.752,7.356
4.756,7.664
4.76,8.092
4.764,7.824
4.768,7.396
4.772,7.512
4.776,7.944
4.78,7.96
4.784,7.496
4.788,7.42
4.792,7.876
4.796,8.056
4.8,7.532
4.804,7.312
4.808,7.816
4.812,8.14
4.816,7.564
4.82,7.244
4.824,7.792
4.828,8.164
4.832,7.62
4.836,7.26
4.84,7.72
4.844,8.124
4.848,7.704
4.852,7.324
4.856,7.628
4.86,8.068
4.864,7.812
4.868,7.392
4.872,7.524
4.876,7.968
4.88,7.948
4.884,7.488
4.888,7.416
4.892,7.896
4.896,8.092
4.9,7.548
4.904,7.316
4.908,7.844
4.912,8.164
4.916,7.576
4.92,7.256
4.924,7.804
4.928,8.208
4.932,7.644
4.936,7.256
4.94,7.74
4.944,8.136
4.948,7.732
4.952,7.308
4.956,7.636
4.96,8.064
4.964,7.86
4.968,7.436
4.972,7.536
4.976,7.988
4.98,7.988
4.984,7.488
4.988,7.424
4.992,7.924
4.996,8.144
5,7.592
5.004,7.364
5.008,7.848
5.012,8.18
5.016,7.608
5.02,7.352
5.024,7.932
5.028,8.288
5.032,7.76
5.036,7.376
5.04,7.864
5.044,8.288
5.048,7.864
5.052,7.504
5.056,7.828
5.06,8.224
5.064,7.968
5.068,7.472
5.072,7.636
5.076,8.048
5.08,8.064
5.084,7.656
5.088,7.556
5.092,7.964
5.096,8.12
5.1,7.568
5.104,7.312
5.108,7.824
5.112,8.156
5.116,7.576
5.12,7.248
5.124,7.788
5.128,8.156
5.132,7.644
5.136,7.252
5.14,7.728
5.144,8.1
5.148,7.644
5.152,7.212
5.156,7.512
5.16,8.028
5.164,8.144
5.168,8.452
5.172,9.472
5.176,10.724
5.18,11.296
5.184,10.512
5.188,9.776
5.192,9.36
5.196,8.716
5.2,7.568
5.204,7.044
5.208,7.376
5.212,7.624
5.216,7.18
5.22,7.08
5.224,7.78
5.228,8.288
5.232,7.82
5.236,7.428
5.24,7.9
5.244,8.288
5.248,7.872
5.252,7.46
5.256,7.812
5.26,8.224
5.264,8.032
5.268,7.584
5.272,7.756
5.276,8.164
5.28,8.176
5.284,7.716
5.288,7.648
5.292,8.1
5.296,8.324
5.3,7.812
5.304,7.628
5.308,8.168
5.312,8.452
5.316,7.928
5.32,7.616
5.324,8.144
5.328,8.544
5.332,8.032
5.336,7.692
5.34,8.184
5.344,8.592
5.348,8.208
5.352,7.812
5.356,8.196
5.36,8.628
5.364,8.42
5.368,8.024
5.372,8.192
5.376,8.68
5.38,8.676
5.384,8.24
5.388,8.208
5.392,8.748
5.396,8.964
5.4,8.512
5.404,8.336
5.408,8.884
5.412,9.26
5.416,8.732
5.42,8.448
5.424,9.012
5.428,9.424
5.432,8.948
5.436,8.604
5.44,9.072
5.444,9.472
5.448,9.024
5.452,8.564
5.456,8.772
5.46,9.104
5.464,8.796
5.468,8.264
5.472,8.292
5.476,8.612
5.48,8.508
5.484,7.972
5.488,7.828
5.492,8.216
5.496,8.36
5.5,7.776
5.504,7.536
5.508,8.004
5.512,8.288
5.516,7.696
5.52,7.404
5.524,7.876
5.528,8.228
5.532,7.716
5.536,7.348
5.54,7.8
5.544,8.184
5.548,7.78
5.552,7.38
5.556,7.708
5.56,8.12
5.564,7.888
5.568,7.464
5.572,7.584
5.576,8.024
5.58,8.02
5.584,7.544
5.588,7.488
5.592,7.928
5.596,8.124
5.6,7.612
5.604,7.424
5.608,7.916
5.612,8.196
5.616,7.652
5.62,7.352
5.624,7.872
5.628,8.244
5.632,7.72
5.636,7.368
5.64,7.816
5.644,8.228
5.648,7.84
5.652,7.444
5.656,7.752
5.66,8.136
5.664,7.924
5.668,7.516
5.672,7.652
5.676,8.048
5.68,8.048
5.684,7.588
5.688,7.52
5.692,7.968
5.696,8.136
5.7,7.624
5.704,7.416
5.708,7.92
5.712,8.192
5.716,7.64
5.72,7.356
5.724,7.872
5.728,8.196
5.732,7.68
5.736,7.328
5.74,7.788
5.744,8.156
5.748,7.764
5.752,7.38
5.756,7.696
5.76,8.072
5.764,7.844
5.768,7.42
5.772,7.588
5.776,7.988
5.78,7.972
5.784,7.512
5.788,7.492
5.792,7.928
5.796,8.06
5.8,7.584
5.804,7.388
5.808,7.892
5.812,8.14
5.816,7.616
5.82,7.344
5.824,7.872
5.828,8.176
5.832,7.668
5.836,7.352
5.84,7.784
5.844,8.148
5.848,7.748
5.852,7.388
5.856,7.672
5.86,8.076
5.864,7.852
5.868,7.456
5.872,7.568
5.876,7.972
5.88,7.944
5.884,7.532
5.888,7.496
5.892,7.892
5.896,8.064
5.9,7.568
5.904,7.396
5.908,7.86
5.912,8.076
5.916,7.604
5.92,7.34
5.924,7.816
5.928,8.112
5.932,7.64
5.936,7.336
5.94,7.724
5.944,8.096
5.948,7.716
5.952,7.36
5.956,7.668
5.96,8.012
5.964,7.832
5.968,7.452
5.972,7.576
5.976,7.944
5.98,7.94
5.984,7.54
5.988,7.536
5.992,7.968
5.996,8.14
6,7.656
6.004,7.472
6.008,7.912
6.012,8.192
6.016,7.708
6.02,7.464
6.024,7.956
6.028,8.28
6.032,7.764
6.036,7.448
6.04,7.864
6.044,8.188
6.048,7.816
6.052,7.5
6.056,7.824
6.06,8.164
6.064,7.904
6.068,7.48
6.072,7.576
6.076,7.924
6.08,7.924
6.084,7.504
6.088,7.484
6.092,7.868
6.096,8.028
6.1,7.544
6.104,7.396
6.108,7.844
6.112,8.08
6.116,7.556
6.12,7.24
6.124,7.7
6.128,7.988
6.132,7.612
6.136,7.68
6.14,8.82
6.144,10.064
6.148,10.52
6.152,10.692
6.156,10.652
6.16,10.3
6.164,9.272
6.168,8.088
6.172,7.612
6.176,7.692
6.18,7.492
6.184,7.032
6.188,7.144
6.192,7.724
6.196,8.016
6.2,7.708
6.204,7.58
6.208,8.044
6.212,8.228
6.216,7.772
6.22,7.532
6.224,8.008
6.228,8.284
6.232,7.824
6.236,7.544
6.24,7.976
6.244,8.308
6.248,7.964
6.252,7.616
6.256,7.9
6.26,8.276
6.264,8.088
6.268,7.708
6.272,7.856
6.276,8.248
6.28,8.252
6.284,7.84
6.288,7.808
6.292,8.24
6.296,8.396
6.3,7.956
6.304,7.832
6.308,8.26
6.312,8.528
6.316,8.076
6.32,7.864
6.324,8.34
6.328,8.656
6.332,8.212
6.336,7.956
6.34,8.388
6.344,8.74
6.348,8.428
6.352,8.152
6.356,8.464
6.36,8.872
6.364,8.724
6.368,8.416
6.372,8.58
6.376,8.996
6.38,9.024
6.384,8.66
6.388,8.684
6.392,9.112
6.396,9.308
6.4,8.896
6.404,8.756
6.408,9.24
6.412,9.48
6.416,8.992
6.42,8.712
6.424,9.096
6.428,9.288
6.432,8.748
6.436,8.352
6.44,8.636
6.444,8.868
6.448,8.412
6.452,7.98
6.456,8.172
6.46,8.46
6.464,8.204
6.468,7.772
6.472,7.848
6.476,8.176
6.48,8.132
6.484,7.72
6.488,7.656
6.492,8.02
6.496,8.144
6.5,7.664
6.504,7.524
6.508,7.96
6.512,8.204
6.516,7.704
6.52,7.46
6.524,7.908
6.528,8.184
6.532,7.728
6.536,7.464
6.54,7.852
6.544,8.176
6.548,7.824
6.552,7.5
6.556,7.772
6.56,8.088
6.564,7.916
6.568,7.56
6.572,7.688
6.576,8.052
6.58,8.044
6.584,7.656
6.588,7.632
6.592,7.996
6.596,8.116
6.6,7.696
6.604,7.568
6.608,7.852
6.612,7.404
6.616,6.94
6.62,7.18
6.624,7.704
6.628,7.76
6.632,7.268
6.636,7.2
6.64,7.756
6.644,8.004
6.648,7.54
6.652,7.244
6.656,7.788
6.66,8.148
6.664,7.644
6.668,7.172
6.672,7.664
6.676,8.128
6.68,7.752
6.684,7.204
6.688,7.588
6.692,8.128
6.696,7.836
6.7,7.26
6.704,7.528
6.708,8.076
6.712,7.944
6.716,7.388
6.72,7.46
6.724,8.008
6.728,8.064
6.732,7.5
6.736,7.372
6.74,7.928
6.744,8.176
6.748,7.644
6.752,7.32
6.756,7.84
6.76,8.236
6.764,7.752
6.768,7.28
6.772,7.776
6.776,8.24
6.78,7.856
6.784,7.336
6.788,7.704
6.792,8.24
6.796,7.956
6.8,7.356
6.804,7.624
6.808,8.168
6.812,8.048
6.816,7.472
6.82,7.532
6.824,8.1
6.828,8.172
6.832,7.564
6.836,7.436
6.84,8
6.844,8.248
6.848,7.656
6.852,7.364
6.856,7.912
6.86,8.316
6.864,7.788
6.868,7.332
6.872,7.808
6.876,8.3
6.88,7.904
6.884,7.344
6.888,7.736
6.892,8.264
6.896,7.988
6.9,7.412
6.904,7.612
6.908,8.188
6.912,8.044
6.916,7.46
6.92,7.532
6.924,8.104
6.928,8.156
6.932,7.592
6.936,7.448
6.94,8
6.944,8.236
6.948,7.672
6.952,7.408
6.956,7.976
6.96,8.392
6.964,7.884
6.968,7.368
6.972,7.88
6.976,8.356
6.98,7.976
6.984,7.432
6.988,7.848
6.992,8.372
6.996,8.076
7,7.484
7.004,7.716
7.008,8.248
7.012,8.144
7.016,7.552
7.02,7.648
7.024,8.192
7.028,8.172
7.032,7.548
7.036,7.376
7.04,7.94
7.044,8.164
7.048,7.612
7.052,7.26
7.056,7.828
7.06,8.204
7.064,7.724
7.068,7.208
7.072,7.732
7.076,8.208
7.08,7.764
7.084,7.136
7.088,7.496
7.092,8.04
7.096,7.884
7.1,7.692
7.104,8.76
7.108,10.22
7.112,10.86
7.116,10.644
7.12,10.272
7.124,10.168
7.128,9.376
7.132,7.968
7.136,7.28
7.14,7.616
7.144,7.672
7.148,7.072
7.152,6.884
7.156,7.628
7.16,8.228
7.164,7.812
7.168,7.368
7.172,7.856
7.176,8.384
7.18,7.952
7.184,7.348
7.188,7.788
7.192,8.356
7.196,8.032
7.2,7.444
7.204,7.728
7.208,8.312
7.212,8.18
7.216,7.54
7.22,7.64
7.224,8.24
7.228,8.288
7.232,7.724
7.236,7.576
7.24,8.212
7.244,8.48
7.248,7.872
7.252,7.54
7.256,8.176
7.26,8.592
7.264,8.088
7.268,7.584
7.272,8.152
7.276,8.72
7.28,8.284
7.284,7.704
7.288,8.156
7.292,8.768
7.296,8.472
7.3,7.88
7.304,8.196
7.308,8.856
7.312,8.736
7.316,8.124
7.32,8.236
7.324,8.936
7.328,9.032
7.332,8.416
7.336,8.344
7.34,9
7.344,9.332
7.348,8.764
7.352,8.448
7.356,9.1
7.36,9.588
7.364,9.064
7.368,8.548
7.372,9.132
7.376,9.692
7.38,9.216
7.384,8.548
7.388,8.896
7.392,9.416
7.396,8.992
7.4,8.272
7.404,8.42
7.408,8.96
7.412,8.712
7.416,7.98
7.42,7.956
7.424,8.516
7.428,8.5
7.432,7.796
7.436,7.62
7.44,8.2
7.444,8.432
7.448,7.784
7.452,7.4
7.456,8.012
7.46,8.428
7.464,7.844
7.468,7.332
7.472,7.868
7.476,8.416
7.48,7.936
7.484,7.332
7.488,7.752
7.492,8.34
7.496,8.032
7.5,7.38
7.504,7.688
7.508,8.276
7.512,8.112
7.516,7.508
7.52,7.56
7.524,8.164
7.528,8.228
7.532,7.58
7.536,7.448
7.54,8.064
7.544,8.332
7.548,7.732
7.552,7.34
7.556,7.972
7.56,8.404
7.564,7.84
7.568,7.292
7.572,7.872
7.576,8.384
7.58,7.94
7.584,7.328
7.588,7.784
7.592,8.356
7.596,8.024
7.6,7.392
7.604,7.664
7.608,8.252
7.612,8.104
7.616,7.464
7.62,7.548
7.624,8.168
7.628,8.18
7.632,7.56
7.636,7.404
7.64,8.032
7.644,8.3
7.648,7.644
7.652,7.296
7.656,7.912
7.66,8.336
7.664,7.78
7.668,7.244
7.672,7.78
7.676,8.308
7.68,7.864
7.684,7.244
7.688,7.708
7.692,8.256
7.696,7.916
7.7,7.3
7.704,7.604
7.708,8.2
7.712,8.036
7.716,7.408
7.72,7.484
7.724,8.104
7.728,8.128
7.732,7.492
7.736,7.344
7.74,8.008
7.744,8.252
7.748,7.62
7.752,7.248
7.756,7.888
7.76,8.304
7.764,7.724
7.768,7.216
7.772,7.76
7.776,8.3
7.78,7.852
7.784,7.216
7.788,7.688
7.792,8.248
7.796,7.936
7.8,7.292
7.804,7.548
7.808,8.176
7.812,8.024
7.816,7.364
7.82,7.456
7.824,8.1
7.828,8.14
7.832,7.48
7.836,7.352
7.84,7.984
7.844,8.232
7.848,7.62
7.852,7.252
7.856,7.86
7.86,8.292
7.864,7.732
7.868,7.216
7.872,7.76
7.876,8.304
7.88,7.836
7.884,7.252
7.888,7.676
7.892,8.252
7.896,7.928
7.9,7.332
7.904,7.596
7.908,8.232
7.912,8.096
7.916,7.48
7.92,7.548
7.924,8.156
7.928,8.22
7.932,7.608
7.936,7.476
7.94,8.084
7.944,8.38
7.948,7.748
7.952,7.368
7.956,7.992
7.96,8.42
7.964,7.872
7.968,7.328
7.972,7.9
7.976,8.428
7.98,7.948
7.984,7.296
7.988,7.68
7.992,8.248
7.996,7.9
8,7.292
8.004,7.564
8.008,8.168
8.012,8.016
8.016,7.364
8.02,7.464
8.024,8.052
8.028,8.128
8.032,7.484
8.036,7.296
8.04,7.872
8.044,8.092
8.048,7.5
8.052,7.256
8.056,8.28
8.06,9.548
8.064,9.884
8.068,10.192
8.072,11.056
8.076,11.112
8.08,9.924
8.084,8.552
8.088,8.144
8.092,8.184
8.096,7.64
8.1,6.856
8.104,7.108
8.108,7.848
8.112,7.848
8.116,7.384
8.12,7.596
8.124,8.248
8.128,8.28
8.132,7.68
8.136,7.528
8.14,8.128
8.144,8.38
8.148,7.772
8.152,7.448
8.156,8.044
8.16,8.468
8.164,7.944
8.168,7.432
8.172,7.964
8.176,8.496
8.18,8.04
8.184,7.48
8.188,7.92
8.192,8.472
8.196,8.184
8.2,7.584
8.204,7.892
8.208,8.496
8.212,8.324
8.216,7.712
8.22,7.844
8.224,8.416
8.228,8.528
8.232,7.924
8.236,7.78
8.24,8.42
8.244,8.692
8.248,8.12
8.252,7.812
8.256,8.412
8.26,8.88
8.264,8.36
8.268,7.908
8.272,8.472
8.276,9.028
8.28,8.64
8.284,8.1
8.288,8.564
8.292,9.176
8.296,8.884
8.3,8.344
8.304,8.684
8.308,9.304
8.312,9.196
8.316,8.612
8.32,8.724
8.324,9.344
8.328,9.408
8.332,8.808
8.336,8.648
8.34,9.192
8.344,9.396
8.348,8.692
8.352,8.26
8.356,8.744
8.36,9.032
8.364,8.372
8.368,7.804
8.372,8.272
8.376,8.7
8.38,8.176
8.384,7.544
8.388,7.92
8.392,8.4
8.396,8.04
8.4,7.424
8.404,7.68
8.408,8.224
8.412,8.072
8.416,7.432
8.42,7.496
8.424,8.104
8.428,8.14
8.432,7.496
8.436,7.364
8.44,7.996
8.444,8.268
8.448,7.628
8.452,7.276
8.456,7.868
8.46,8.288
8.464,7.724
8.468,7.228
8.472,7.788
8.476,8.312
8.48,7.88
8.484,7.272
8.488,7.712
8.492,8.284
8.496,7.944
8.5,7.34
8.504,7.596
8.508,8.236
8.512,8.088
8.516,7.456
8.52,7.536
8.524,8.12
8.528,8.192
8.532,7.544
8.536,7.416
8.54,8.012
8.544,8.276
8.548,7.676
8.552,7.328
8.556,7.896
8.56,8.34
8.564,7.756
8.568,7.26
8.572,7.804
8.576,8.316
8.58,7.852
8.584,7.268
8.588,7.688
8.592,8.248
8.596,7.9
8.6,7.308
8.604,7.592
8.608,8.18
8.612,8.052
8.616,7.388
8.62,7.476
8.624,8.072
8.628,8.108
8.632,7.448
8.636,7.312
8.64,7.96
8.644,8.208
8.648,7.612
8.652,7.24
8.656,7.856
8.66,8.26
8.664,7.7
8.668,7.196
8.672,7.728
8.676,8.26
8.68,7.788
8.684,7.22
8.688,7.64
8.692,8.216
8.696,7.856
8.7,7.256
8.704,7.544
8.708,8.14
8.712,7.968
8.716,7.376
8.72,7.444
8.724,8.02
8.728,8.092
8.732,7.464
8.736,7.316
8.74,7.924
8.744,8.168
8.748,7.58
8.752,7.252
8.756,7.84
8.76,8.232
8.764,7.692
8.768,7.172
8.772,7.724
8.776,8.24
8.78,7.796
8.784,7.208
8.788,7.648
8.792,8.212
8.796,7.86
8.8,7.264
8.804,7.512
8.808,8.128
8.812,7.972
8.816,7.324
8.82,7.44
8.824,8.052
8.828,8.108
8.832,7.464
8.836,7.328
8.84,7.94
8.844,8.196
8.848,7.6
8.852,7.276
8.856,7.864
8.86,8.32
8.864,7.792
8.868,7.284
8.872,7.804
8.876,8.332
8.88,7.876
8.884,7.324
8.888,7.756
8.892,8.356
8.896,8.024
8.9,7.372
8.904,7.648
8.908,8.236
8.912,8.088
8.916,7.444
8.92,7.528
8.924,8.196
8.928,8.208
8.932,7.532
8.936,7.344
8.94,7.92
8.944,8.164
8.948,7.564
8.952,7.216
8.956,7.828
8.96,8.252
8.964,7.692
8.968,7.184
8.972,7.712
8.976,8.224
8.98,7.78
8.984,7.152
8.988,7.524
8.992,8.064
8.996,7.736
9,7.228
9.004,7.86
9.008,9.252
9.012,10.004
9.016,10.216
9.02,10.748
9.024,10.964
9.028,10.3
9.032,8.84
9.036,7.888
9.04,7.916
9.044,7.888
9.048,7.1
9.052,6.74
9.056,7.48
9.06,8.092
9.064,7.712
9.068,7.352
9.072,7.944
9.076,8.444
9.08,7.968
9.084,7.376
9.088,7.816
9.092,8.4
9.096,8.072
9.1,7.452
9.104,7.752
9.108,8.356
9.112,8.2
9.116,7.588
9.12,7.688
9.124,8.304
9.128,8.324
9.132,7.704
9.136,7.6
9.14,8.224
9.144,8.492
9.148,7.888
9.152,7.54
9.156,8.16
9.16,8.6
9.164,8.076
9.168,7.564
9.172,8.128
9.176,8.676
9.18,8.24
9.184,7.68
9.188,8.108
9.192,8.724
9.196,8.432
9.2,7.86
9.204,8.148
9.208,8.788
9.212,8.64
9.216,8.04
9.22,8.204
9.224,8.844
9.228,8.948
9.232,8.364
9.236,8.26
9.24,8.944
9.244,9.26
9.248,8.672
9.252,8.396
9.256,9.032
9.26,9.48
9.264,8.964
9.268,8.52
9.272,9.092
9.276,9.648
9.28,9.16
9.284,8.552
9.288,8.94
9.292,9.456
9.296,9.028
9.3,8.308
9.304,8.484
9.308,9.008
9.312,8.728
9.316,8.004
9.32,8.008
9.324,8.508
9.328,8.488
9.332,7.772
9.336,7.6
9.34,8.196
9.344,8.416
9.348,7.764
9.352,7.364
9.356,7.96
9.36,8.364
9.364,7.784
9.368,7.252
9.372,7.8
9.376,8.344
9.38,7.856
9.384,7.244
9.388,7.7
9.392,8.268
9.396,7.936
9.4,7.324
9.404,7.604
9.408,8.232
9.412,8.044
9.416,7.4
9.42,7.504
9.424,8.12
9.428,8.172
9.432,7.532
9.436,7.412
9.44,8.012
9.444,8.288
9.448,7.664
9.452,7.332
9.456,7.928
9.46,8.352
9.464,7.784
9.468,7.288
9.472,7.848
9.476,8.372
9.48,7.892
9.484,7.312
9.488,7.76
9.492,8.312
9.496,7.968
9.5,7.364
9.504,7.684
9.508,8.272
9.512,8.092
9.516,7.428
9.52,7.52
9.524,8.148
9.528,8.184
9.532,7.52
9.536,7.392
9.54,8.036
9.544,8.288
9.548,7.636
9.552,7.296
9.556,7.896
9.56,8.336
9.564,7.72
9.568,7.224
9.572,7.788
9.576,8.312
9.58,7.84
9.584,7.248
9.588,7.68
9.592,8.248
9.596,7.944
9.6,7.308
9.604,7.544
9.608,8.172
9.612,8.008
9.616,7.372
9.62,7.476
9.624,8.088
9.628,8.104
9.632,7.456
9.636,7.328
9.64,7.972
9.644,8.212
9.648,7.592
9.652,7.224
9.656,7.84
9.66,8.26
9.664,7.68
9.668,7.196
9.672,7.744
9.676,8.264
9.68,7.8
9.684,7.228
9.688,7.644
9.692,8.224
9.696,7.884
9.7,7.248
9.704,7.54
9.708,8.132
9.712,7.98
9.716,7.36
9.72,7.428
9.724,8.044
9.728,8.092
9.732,7.452
9.736,7.328
9.74,7.948
9.744,8.192
9.748,7.564
9.752,7.232
9.756,7.852
9.76,8.296
9.764,7.68
9.768,7.18
9.772,7.712
9.776,8.28
9.78,7.804
9.784,7.232
9.788,7.684
9.792,8.256
9.796,7.916
9.8,7.272
9.804,7.604
9.808,8.232
9.812,8.096
9.816,7.46
9.82,7.512
9.824,8.152
9.828,8.2
9.832,7.592
9.836,7.464
9.84,8.08
9.844,8.348
9.848,7.696
9.852,7.344
9.856,7.956
9.86,8.396
9.864,7.8
9.868,7.3
9.872,7.884
9.876,8.42
9.88,7.9
9.884,7.268
9.888,7.644
9.892,8.224
9.896,7.9
9.9,7.26
9.904,7.556
9.908,8.144
9.912,7.968
9.916,7.364
9.92,7.444
9.924,8.08
9.928,8.1
9.932,7.44
9.936,7.264
9.94,7.864
9.944,8.084
9.948,7.488
9.952,7.328
9.956,8.48
9.96,9.808
9.964,10.1
9.968,10.324
9.972,10.964
9.976,10.916
9.98,9.648
9.984,8.236
9.988,7.928
9.992,8.12
9.996,7.54
10,6.788
10.004,7.1
10.008,7.876
10.012,7.9
10.016,7.416
10.02,7.592
10.024,8.244
10.028,8.28
10.032,7.612
10.036,7.492
10.04,8.116
10.044,8.372
10.048,7.748
10.052,7.44
10.056,8.044
10.06,8.48
10.064,7.9
10.068,7.408
10.072,7.948
10.076,8.488
10.08,8.044
10.084,7.456
10.088,7.916
10.092,8.5
10.096,8.192
10.1,7.572
10.104,7.876
10.108,8.464
10.112,8.344
10.116,7.74
10.12,7.824
10.124,8.464
10.128,8.548
10.132,7.916
10.136,7.768
10.14,8.468
10.144,8.732
10.148,8.132
10.152,7.8
10.156,8.448
10.16,8.904
10.164,8.392
10.168,7.884
10.172,8.496
10.176,9.052
10.18,8.652
10.184,8.112
10.188,8.616
10.192,9.24
10.196,8.952
10.2,8.364
10.204,8.692
10.208,9.372
10.212,9.244
10.216,8.648
10.22,8.768
10.224,9.436
10.228,9.476
10.232,8.82
10.236,8.656
10.24,9.212
10.244,9.4
10.248,8.676
10.252,8.216
10.256,8.728
10.26,9.048
10.264,8.36
10.268,7.772
10.272,8.244
10.276,8.704
10.28,8.14
10.284,7.504
10.288,7.852
10.292,8.404
10.296,8.056
10.3,7.4
10.304,7.68
10.308,8.248
10.312,8.072
10.316,7.428
10.32,7.5
10.324,8.08
10.328,8.144
10.332,7.48
10.336,7.376
10.34,7.992
10.344,8.24
10.348,7.632
10.352,7.26
10.356,7.884
10.36,8.312
10.364,7.76
10.368,7.236
10.372,7.748
10.376,8.308
10.38,7.84
10.384,7.264
10.388,7.708
10.392,8.28
10.396,7.948
10.4,7.308
10.404,7.652
10.408,8.212
10.412,8.044
10.416,7.392
10.42,7.48
10.424,8.116
10.428,8.164
10.432,7.524
10.436,7.388
10.44,8.032
10.444,8.264
10.448,7.644
10.452,7.308
10.456,7.908
10.46,8.348
10.464,7.764
10.468,7.256
10.472,7.78
10.476,8.32
10.48,7.836
10.484,7.252
10.488,7.672
10.492,8.268
10.496,7.916
10.5,7.316
10.504,7.584
10.508,8.156
10.512,8
10.516,7.372
10.52,7.46
10.524,8.068
10.528,8.1
10.532,7.464
10.536,7.328
10.54,7.94
10.544,8.192
10.548,7.584
10.552,7.244
10.556,7.824
10.56,8.26
10.564,7.68
10.568,7.18
10.572,7.716
10.576,8.24
10.58,7.792
10.584,7.212
10.588,7.632
10.592,8.196
10.596,7.848
10.6,7.228
10.604,7.54
10.608,8.128
10.612,7.98
10.616,7.344
10.62,7.444
10.624,8.036
10.628,8.072
10.632,7.428
10.636,7.324
10.64,7.912
10.644,8.184
10.648,7.58
10.652,7.208
10.656,7.816
10.66,8.276
10.664,7.668
10.668,7.196
10.672,7.692
10.676,8.252
10.68,7.772
10.684,7.184
10.688,7.624
10.692,8.192
10.696,7.88
10.7,7.244
10.704,7.524
10.708,8.116
10.712,7.972
10.716,7.336
10.72,7.404
10.724,8.044
10.728,8.08
10.732,7.432
10.736,7.304
10.74,7.924
10.744,8.2
10.748,7.564
10.752,7.232
10.756,7.86
10.76,8.292
10.764,7.752
10.768,7.276
10.772,7.796
10.776,8.296
10.78,7.844
10.784,7.288
10.788,7.736
10.792,8.316
10.796,8.02
10.8,7.356
10.804,7.64
10.808,8.236
10.812,8.064
10.816,7.424
10.82,7.536
10.824,8.16
10.828,8.204
10.832,7.544
10.836,7.364
10.84,7.924
10.844,8.148
10.848,7.576
10.852,7.192
10.856,7.8
10.86,8.22
10.864,7.648
10.868,7.152
10.872,7.688
10.876,8.216
10.88,7.74
10.884,7.152
10.888,7.592
10.892,8.096
10.896,7.728
10.9,7.12
10.904,7.492
10.908,8.48
10.912,9.104
10.916,9.388
10.92,10.296
10.924,11.352
10.928,11.008
10.932,9.64
10.936,8.636
10.94,8.456
10.944,8.14
10.948,7.264
10.952,6.76
10.956,7.316
10.96,7.88
10.964,7.516
10.968,7.184
10.972,7.824
10.976,8.412
10.98,7.948
10.984,7.336
10.988,7.78
10.992,8.368
10.996,8.036
11,7.468
11.004,7.7
11.008,8.332
11.012,8.176
11.016,7.536
11.02,7.628
11.024,8.256
11.028,8.316
11.032,7.68
11.036,7.544
11.04,8.172
11.044,8.44
11.048,7.824
11.052,7.508
11.056,8.12
11.06,8.54
11.064,8.004
11.068,7.528
11.072,8.08
11.076,8.612
11.08,8.18
11.084,7.612
11.088,8.068
11.092,8.668
11.096,8.392
11.1,7.748
11.104,8.092
11.108,8.68
11.112,8.588
11.116,7.972
11.12,8.076
11.124,8.736
11.128,8.876
11.132,8.28
11.136,8.208
11.14,8.844
11.144,9.152
11.148,8.612
11.152,8.292
11.156,8.94
11.16,9.44
11.164,8.904
11.168,8.436
11.172,9.032
11.176,9.612
11.18,9.148
11.184,8.528
11.188,8.948
11.192,9.484
11.196,9.104
11.2,8.396
11.204,8.584
11.208,9.032
11.212,8.788
11.216,8.056
11.22,8.048
11.224,8.532
11.228,8.524
11.232,7.852
11.236,7.62
11.24,8.192
11.244,8.396
11.248,7.76
11.252,7.376
11.256,7.924
11.26,8.348
11.264,7.784
11.268,7.264
11.272,7.788
11.276,8.3
11.28,7.816
11.284,7.22
11.288,7.672
11.292,8.24
11.296,7.9
11.3,7.272
11.304,7.564
11.308,8.148
11.312,7.988
11.316,7.352
11.32,7.432
11.324,8.064
11.328,8.128
11.332,7.468
11.336,7.384
11.34,7.972
11.344,8.248
11.348,7.628
11.352,7.28
11.356,7.86
11.36,8.296
11.364,7.748
11.368,7.256
11.372,7.784
11.376,8.328
11.38,7.852
11.384,7.276
11.388,7.724
11.392,8.272
11.396,7.92
11.4,7.304
11.404,7.604
11.408,8.2
11.412,8.06
11.416,7.396
11.42,7.512
11.424,8.088
11.428,8.144
11.432,7.516
11.436,7.356
11.44,8
11.444,8.252
11.448,7.624
11.452,7.28
11.456,7.848
11.46,8.276
11.464,7.712
11.468,7.2
11.472,7.776
11.476,8.324
11.48,7.816
11.484,7.204
11.488,7.652
11.492,8.22
11.496,7.876
11.5,7.272
11.504,7.584
11.508,8.164
11.512,8.024
11.516,7.368
11.52,7.444
11.524,8.06
11.528,8.104
11.532,7.444
11.536,7.312
11.54,7.956
11.544,8.22
11.548,7.58
11.552,7.24
11.556,7.832
11.56,8.272
11.564,7.7
11.568,7.16
11.572,7.712
11.576,8.276
11.58,7.816
11.584,7.208
11.588,7.624
11.592,8.2
11.596,7.9
11.6,7.228
11.604,7.52
11.608,8.18
11.612,8.008
11.616,7.364
11.62,7.436
11.624,8.028
11.628,8.064
11.632,7.464
11.636,7.316
11.64,7.928
11.644,8.184
11.648,7.576
11.652,7.236
11.656,7.824
11.66,8.26
11.664,7.752
11.668,7.12
11.672,7.684
11.676,8.224
11.68,7.76
11.684,7.176
11.688,7.628
11.692,8.232
11.696,7.868
11.7,7.24
11.704,7.528
11.708,8.096
11.712,8.02
11.716,7.388
11.72,7.492
11.724,8.116
11.728,8.136
11.732,7.516
11.736,7.36
11.74,8.056
11.744,8.3
11.748,7.692
11.752,7.376
11.756,7.984
11.76,8.38
11.764,7.792
11.768,7.26
11.772,7.824
11.776,8.392
11.78,7.92
11.784,7.34
11.788,7.76
11.792,8.292
11.796,7.904
11.8,7.236
11.804,7.536
11.808,8.144
11.812,7.996
11.816,7.34
11.82,7.428
11.824,8.072
11.828,8.096
11.832,7.444
11.836,7.32
11.84,7.94
11.844,8.168
11.848,7.5
11.852,7.084
11.856,7.752
11.86,8.348
11.864,8.304
11.868,8.664
11.872,10.068
11.876,11.38
11.88,11.084
11.884,9.916
11.888,9.56
11.892,9.284
11.896,8.16
11.9,7.052
11.904,7.132
11.908,7.636
11.912,7.548
11.916,7.06
11.92,7.372
11.924,8.136
11.928,8.3
11.932,7.664
11.936,7.5
11.94,8.124
11.944,8.4
11.948,7.8
11.952,7.436
11.956,8.06
11.96,8.484
11.964,7.924
11.968,7.404
11.972,7.976
11.976,8.512
11.98,8.052
11.984,7.468
11.988,7.936
11.992,8.528
11.996,8.188
12,7.544
12.004,7.852
12.008,8.484
12.012,8.328
12.016,7.704
12.02,7.792
12.024,8.448
12.028,8.528
12.032,7.884
12.036,7.74
12.04,8.4
12.044,8.684
12.048,8.096
12.052,7.74
12.056,8.42
12.06,8.876
12.064,8.32
12.068,7.816
12.072,8.424
12.076,9.016
12.08,8.56
12.084,8.024
12.088,8.5
12.092,9.144
12.096,8.88
12.1,8.268
12.104,8.62
12.108,9.268
12.112,9.156
12.116,8.572
12.12,8.696
12.124,9.376
12.128,9.468
12.132,8.82
12.136,8.704
12.14,9.316
12.144,9.548
12.148,8.864
12.152,8.424
12.156,8.956
12.16,9.284
12.164,8.628
12.168,7.976
12.172,8.42
12.176,8.824
12.18,8.276
12.184,7.608
12.188,8
12.192,8.54
12.196,8.164
12.2,7.484
12.204,7.704
12.208,8.272
12.212,8.128
12.216,7.444
12.22,7.512
12.224,8.136
12.228,8.172
12.232,7.524
12.236,7.348
12.24,7.996
12.244,8.26
12.248,7.608
12.252,7.248
12.256,7.868
12.26,8.316
12.264,7.744
12.268,7.228
12.272,7.796
12.276,8.332
12.28,7.856
12.284,7.232
12.288,7.68
12.292,8.268
12.296,7.964
12.3,7.316
12.304,7.612
12.308,8.236
12.312,8.072
12.316,7.412
12.32,7.464
12.324,8.112
12.328,8.192
12.332,7.52
12.336,7.384
12.34,8.016
12.344,8.304
12.348,7.656
12.352,7.268
12.356,7.904
12.36,8.348
12.364,7.744
12.368,7.248
12.372,7.78
12.376,8.352
12.38,7.876
12.384,7.252
12.388,7.696
12.392,8.284
12.396,7.948
12.4,7.288
12.404,7.596
12.408,8.208
12.412,8.04
12.416,7.376
12.42,7.46
12.424,8.12
12.428,8.156
12.432,7.468
12.436,7.348
12.44,7.976
12.444,8.228
12.448,7.608
12.452,7.2
12.456,7.872
12.46,8.292
12.464,7.7
12.468,7.18
12.472,7.756
12.476,8.3
12.48,7.84
12.484,7.188
12.488,7.656
12.492,8.276
12.496,7.92
12.5,7.26
12.504,7.564
12.508,8.148
12.512,8
12.516,7.344
12.52,7.42
12.524,8.036
12.528,8.128
12.532,7.456
12.536,7.304
12.54,7.96
12.544,8.236
12.548,7.576
12.552,7.216
12.556,7.824
12.56,8.308
12.564,7.68
12.568,7.188
12.572,7.74
12.576,8.284
12.58,7.812
12.584,7.22
12.588,7.612
12.592,8.228
12.596,7.916
12.6,7.236
12.604,7.544
12.608,8.18
12.612,8.02
12.616,7.34
12.62,7.428
12.624,8.092
12.628,8.172
12.632,7.552
12.636,7.388
12.64,8.028
12.644,8.316
12.648,7.672
12.652,7.304
12.656,7.952
12.66,8.412
12.664,7.84
12.668,7.276
12.672,7.868
12.676,8.42
12.68,7.92
12.684,7.32
12.688,7.784
12.692,8.368
12.696,8.028
12.7,7.292
12.704,7.58
12.708,8.18
12.712,8.008
12.716,7.34
12.72,7.4
12.724,8.064
12.728,8.136
12.732,7.472
12.736,7.296
12.74,7.94
12.744,8.22
12.748,7.576
12.752,7.176
12.756,7.784
12.76,8.212
12.764,7.552
12.768,7.024
12.772,7.74
12.776,8.756
12.78,9.076
12.784,9.288
12.788,10.496
12.792,11.476
12.796,10.58
12.8,9.06
12.804,8.56
12.808,8.488
12.812,7.976
12.816,7.204
12.82,7.036
12.824,7.56
12.828,7.732
12.832,7.216
12.836,7.252
12.84,8.02
12.844,8.388
12.848,7.752
12.852,7.388
12.856,8.036
12.86,8.484
12.864,7.868
12.868,7.364
12.872,7.988
12.876,8.504
12.88,8.004
12.884,7.428
12.888,7.892
12.892,8.476
12.896,8.136
12.9,7.484
12.904,7.808
12.908,8.444
12.912,8.272
12.916,7.632
12.92,7.724
12.924,8.384
12.928,8.456
12.932,7.816
12.936,7.656
12.94,8.344
12.944,8.644
12.948,8.012
12.952,7.656
12.956,8.336
12.96,8.804
12.964,8.224
12.968,7.728
12.972,8.304
12.976,8.88
12.98,8.436
12.984,7.888
12.988,8.348
12.992,9.008
12.996,8.7
13,8.088
13.004,8.44
13.008,9.112
13.012,9.008
13.016,8.42
13.02,8.544
13.024,9.24
13.028,9.344
13.032,8.712
13.036,8.6
13.04,9.288
13.044,9.596
13.048,8.968
13.052,8.6
13.056,9.212
13.06,9.588
13.064,8.9
13.068,8.28
13.072,8.752
13.076,9.204
13.08,8.612
13.084,7.896
13.088,8.264
13.092,8.772
13.096,8.388
13.1,7.644
13.104,7.88
13.108,8.444
13.112,8.228
13.116,7.516
13.12,7.58
13.124,8.212
13.128,8.248
13.132,7.568
13.136,7.404
13.14,8.036
13.144,8.296
13.148,7.64
13.152,7.248
13.156,7.908
13.16,8.356
13.164,7.76
13.168,7.212
13.172,7.784
13.176,8.34
13.18,7.852
13.184,7.236
13.188,7.704
13.192,8.296
13.196,7.968
13.2,7.316
13.204,7.608
13.208,8.248
13.212,8.06
13.216,7.392
13.22,7.496
13.224,8.136
13.228,8.196
13.232,7.548
13.236,7.368
13.24,8.044
13.244,8.284
13.248,7.66
13.252,7.284
13.256,7.928
13.26,8.352
13.264,7.788
13.268,7.252
13.272,7.816
13.276,8.356
13.28,7.872
13.284,7.24
13.288,7.68
13.292,8.272
13.296,7.96
13.3,7.308
13.304,7.592
13.308,8.204
13.312,8.08
13.316,7.376
13.32,7.472
13.324,8.108
13.328,8.168
13.332,7.504
13.336,7.32
13.34,8.008
13.344,8.24
13.348,7.596
13.352,7.216
13.356,7.844
13.36,8.324
13.364,7.732
13.368,7.192
13.372,7.736
13.376,8.3
13.38,7.844
13.384,7.208
13.388,7.656
13.392,8.22
13.396,7.9
13.4,7.236
13.404,7.532
13.408,8.184
13.412,8.012
13.416,7.352
13.42,7.428
13.424,8.056
13.428,8.1
13.432,7.444
13.436,7.296
13.44,7.948
13.444,8.196
13.448,7.564
13.452,7.204
13.456,7.824
13.46,8.256
13.464,7.676
13.468,7.148
13.472,7.72
13.476,8.26
13.48,7.772
13.484,7.144
13.488,7.6
13.492,8.196
13.496,7.868
13.5,7.228
13.504,7.492
13.508,8.116
13.512,8.004
13.516,7.376
13.52,7.476
13.524,8.128
13.528,8.14
13.532,7.484
13.536,7.296
13.54,8.016
13.544,8.296
13.548,7.652
13.552,7.288
13.556,7.912
13.56,8.372
13.564,7.724
13.568,7.204
13.572,7.82
13.576,8.344
13.58,7.916
13.584,7.268
13.588,7.704
13.592,8.268
13.596,7.872
13.6,7.168
13.604,7.448
13.608,8.104
13.612,7.984
13.616,7.284
13.62,7.348
13.624,7.976
13.628,8.064
13.632,7.404
13.636,7.228
13.64,7.896
13.644,8.132
13.648,7.444
13.652,7.028
13.656,7.692
13.66,8.236
13.664,8.036
13.668,8.296
13.672,9.78
13.676,11.196
13.68,11.132
13.684,10.1
13.688,9.82
13.692,9.5
13.696,8.324
13.7,7.112
13.704,7.136
13.708,7.636
13.712,7.448
13.716,6.952
13.72,7.236
13.724,8.052
13.728,8.228
13.732,7.62
13.736,7.396
13.74,8.076
13.744,8.336
13.748,7.688
13.752,7.312
13.756,7.992
13.76,8.44
13.764,7.84
13.768,7.3
13.772,7.888
13.776,8.484
13.78,7.976
13.784,7.336
13.788,7.84
13.792,8.428
13.796,8.112
13.8,7.42
13.804,7.74
13.808,8.428
13.812,8.288
13.816,7.608
13.82,7.692
13.824,8.4
13.828,8.476
13.832,7.776
13.836,7.628
13.84,8.352
13.844,8.656
13.848,8.024
13.852,7.628
13.856,8.36
13.86,8.852
13.864,8.26
13.868,7.712
13.872,8.384
13.876,8.968
13.88,8.532
13.884,7.928
13.888,8.464
13.892,9.124
13.896,8.824
13.9,8.204
13.904,8.524
13.908,9.244
13.912,9.144
13.916,8.5
13.92,8.632
13.924,9.356
13.928,9.436
13.932,8.776
13.936,8.604
13.94,9.308
13.944,9.544
13.948,8.824
13.952,8.34
13.956,8.94
13.96,9.288
13.964,8.576
13.968,7.852
13.972,8.384
13.976,8.868
13.98,8.284
13.984,7.56
13.988,7.968
13.992,8.536
13.996,8.14
14,7.412
14.004,7.696
14.008,8.308
14.012,8.108
14.016,7.404
14.02,7.472
14.024,8.16
14.028,8.208
14.032,7.48
14.036,7.292
14.04,8.02
14.044,8.26
14.048,7.588
14.052,7.172
14.056,7.868
14.06,8.34
14.064,7.728
14.068,7.128
14.072,7.756
14.076,8.288
14.08,7.812
14.084,7.148
14.088,7.648
14.092,8.284
14.096,7.924
14.1,7.236
14.104,7.536
14.108,8.212
14.112,8.068
14.116,7.356
14.12,7.448
14.124,8.128
14.128,8.2
14.132,7.496
14.136,7.3
14.14,8.016
14.144,8.324
14.148,7.62
14.152,7.18
14.156,7.896
14.16,8.392
14.164,7.78
14.168,7.168
14.172,7.8
14.176,8.36
14.18,7.856
14.184,7.176
14.188,7.668
14.192,8.32
14.196,7.94
14.2,7.252
14.204,7.576
14.208,8.22
14.212,8.044
14.216,7.344
14.22,7.404
14.224,8.104
14.228,8.164
14.232,7.444
14.236,7.256
14.24,7.98
14.244,8.26
14.248,7.564
14.252,7.156
14.256,7.848
14.26,8.328
14.264,7.696
14.268,7.092
14.272,7.728
14.276,8.328
14.28,7.816
14.284,7.124
14.288,7.612
14.292,8.24
14.296,7.888
14.3,7.204
14.304,7.516
14.308,8.184
14.312,8
14.316,7.28
14.32,7.352
14.324,8.068
14.328,8.144
14.332,7.46
14.336,7.244
14.34,7.984
14.344,8.268
14.348,7.604
14.352,7.248
14.356,7.952
14.36,8.408
14.364,7.788
14.368,7.188
14.372,7.832
14.376,8.4
14.38,7.932
14.384,7.28
14.388,7.788
14.392,8.404
14.396,8.024
14.4,7.308
14.404,7.592
14.408,8.264
14.412,8.084
14.416,7.44
14.42,7.496
14.424,8.192
14.428,8.168
14.432,7.412
14.436,7.208
14.44,7.952
14.444,8.232
14.448,7.532
14.452,7.1
14.456,7.824
14.46,8.288
14.464,7.672
14.468,7.072
14.472,7.716
14.476,8.292
14.48,7.752
14.484,7.032
14.488,7.476
14.492,8.14
14.496,7.912
14.5,7.684
14.504,8.876
14.508,10.42
14.512,11.072
14.516,10.628
14.52,10.192
14.524,10.088
14.528,9.272
14.532,7.772
14.536,7.104
14.54,7.592
14.544,7.724
14.548,7.048
14.552,6.792
14.556,7.688
14.56,8.328
14.564,7.82
14.568,7.248
14.572,7.888
14.576,8.436
14.58,7.944
14.584,7.272
14.588,7.756
14.592,8.396
14.596,8.056
14.6,7.36
14.604,7.696
14.608,8.404
14.612,8.22
14.616,7.488
14.62,7.572
14.624,8.268
14.628,8.372
14.632,7.652
14.636,7.5
14.64,8.256
14.644,8.508
14.648,7.844
14.652,7.428
14.656,8.188
14.66,8.648
14.664,8.044
14.668,7.44
14.672,8.144
14.676,8.732
14.68,8.244
14.684,7.596
14.688,8.112
14.692,8.792
14.696,8.452
14.7,7.784
14.704,8.132
14.708,8.852
14.712,8.752
14.716,8.068
14.72,8.176
14.724,8.94
14.728,9.052
14.732,8.4
14.736,8.272
14.74,9.044
14.744,9.392
14.748,8.74
14.752,8.38
14.756,9.116
14.76,9.628
14.764,9.052
14.768,8.444
14.772,9.108
14.776,9.684
14.78,9.136
14.784,8.36
14.788,8.744
14.792,9.272
14.796,8.796
14.8,8.028
14.804,8.2
14.808,8.788
14.812,8.552
14.816,7.752
14.82,7.752
14.824,8.392
14.828,8.368
14.832,7.632
14.836,7.408
14.84,8.096
14.844,8.344
14.848,7.66
14.852,7.192
14.856,7.916
14.86,8.372
14.864,7.72
14.868,7.132
14.872,7.764
14.876,8.332
14.88,7.8
14.884,7.132
14.888,7.64
14.892,8.276
14.896,7.884
14.9,7.208
14.904,7.5
14.908,8.192
14.912,8.016
14.916,7.3
14.92,7.4
14.924,8.116
14.928,8.168
14.932,7.456
14.936,7.26
14.94,8
14.944,8.284
14.948,7.608
14.952,7.192
14.956,7.904
14.96,8.368
14.964,7.752
14.968,7.148
14.972,7.796
14.976,8.38
14.98,7.832
14.984,7.192
14.988,7.656
14.992,8.3
14.996,7.968
15,7.272
15.004,7.552
15.008,8.228
15.012,8.06
15.016,7.364
15.02,7.408
15.024,8.128
15.028,8.18
15.032,7.464
15.036,7.272
15.04,8.004
15.044,8.276
15.048,7.596
15.052,7.18
15.056,7.908
15.06,8.328
15.064,7.692
15.068,7.116
15.072,7.752
15.076,8.324
15.08,7.796
15.084,7.112
15.088,7.644
15.092,8.268
15.096,7.888
15.1,7.204
15.104,7.484
15.108,8.18
15.112,7.992
15.116,7.28
15.12,7.344
15.124,8.092
15.128,8.124
15.132,7.42
15.136,7.212
15.14,7.944
15.144,8.212
15.148,7.544
15.152,7.112
15.156,7.848
15.16,8.308
15.164,7.68
15.168,7.076
15.172,7.7
15.176,8.292
15.18,7.764
15.184,7.12
15.188,7.592
15.192,8.256
15.196,7.892
15.2,7.188
15.204,7.468
15.208,8.152
15.212,7.968
15.216,7.288
15.22,7.356
15.224,8.092
15.228,8.156
15.232,7.456
15.236,7.288
15.24,8.044
15.244,8.348
15.248,7.648
15.252,7.212
15.256,7.952
15.26,8.412
15.264,7.792
15.268,7.22
15.272,7.86
15.276,8.464
15.28,7.948
15.284,7.256
15.288,7.732
15.292,8.336
15.296,7.972
15.3,7.316
15.304,7.66
15.308,8.34
15.312,8.132
15.316,7.356
15.32,7.4
15.324,8.092
15.328,8.084
15.332,7.412
15.336,7.216
15.34,7.944
15.344,8.216
15.348,7.532
15.352,7.096
15.356,7.808
15.36,8.288
15.364,7.656
15.368,7.048
15.372,7.648
15.376,8.18
15.38,7.688
15.384,7.084
15.388,7.864
15.392,9.26
15.396,9.856
15.4,10.008
15.404,10.824
15.408,11.188
15.412,10.32
15.416,8.748
15.42,7.968
15.424,8.052
15.428,7.82
15.432,6.984
15.436,6.696
15.44,7.584
15.444,8.072
15.448,7.536
15.452,7.236
15.456,8.032
15.46,8.472
15.464,7.816
15.468,7.252
15.472,7.912
15.476,8.452
15.48,7.948
15.484,7.276
15.488,7.788
15.492,8.428
15.496,8.076
15.5,7.408
15.504,7.708
15.508,8.4
15.512,8.224
15.516,7.5
15.52,7.6
15.524,8.352
15.528,8.368
15.532,7.692
15.536,7.524
15.54,8.32
15.544,8.604
15.548,7.892
15.552,7.484
15.556,8.212
15.56,8.72
15.564,8.088
15.568,7.528
15.572,8.204
15.576,8.824
15.58,8.328
15.584,7.696
15.588,8.176
15.592,8.888
15.596,8.556
15.6,7.908
15.604,8.24
15.608,8.984
15.612,8.856
15.616,8.196
15.62,8.292
15.624,9.076
15.628,9.172
15.632,8.516
15.636,8.352
15.64,9.18
15.644,9.484
15.648,8.856
15.652,8.46
15.656,9.188
15.66,9.648
15.664,9.024
15.668,8.416
15.672,9.016
15.676,9.516
15.68,8.884
15.684,8.132
15.688,8.512
15.692,9.052
15.696,8.576
15.7,7.764
15.704,7.992
15.708,8.616
15.712,8.388
15.716,7.612
15.72,7.604
15.724,8.28
15.728,8.28
15.732,7.588
15.736,7.352
15.74,8.06
15.744,8.296
15.748,7.624
15.752,7.184
15.756,7.9
15.76,8.34
15.764,7.716
15.768,7.14
15.772,7.784
15.776,8.36
15.78,7.836
15.784,7.172
15.788,7.656
15.792,8.312
15.796,7.924
15.8,7.232
15.804,7.52
15.808,8.228
15.812,8.06
15.816,7.352
15.82,7.404
15.824,8.156
15.828,8.196
15.832,7.472
15.836,7.296
15.84,8.02
15.844,8.292
15.848,7.612
15.852,7.212
15.856,7.888
15.86,8.38
15.864,7.736
15.868,7.164
15.872,7.768
15.876,8.38
15.88,7.872
15.884,7.228
15.888,7.66
15.892,8.288
15.896,7.944
15.9,7.256
15.904,7.532
15.908,8.24
15.912,8.064
15.916,7.364
15.92,7.392
15.924,8.1
15.928,8.14
15.932,7.448
15.936,7.232
15.94,7.968
15.944,8.256
15.948,7.56
15.952,7.148
15.956,7.84
15.96,8.3
15.964,7.676
15.968,7.096
15.972,7.728
15.976,8.276
15.98,7.776
15.984,7.14
15.988,7.608
15.992,8.268
15.996,7.904
16,7.196
16.004,7.444
16.008,8.18
16.012,8
16.016,7.276
16.02,7.324
16.024,8.088
16.028,8.108
16.032,7.4
16.036,7.196
16.04,7.932
16.044,8.224
16.048,7.52
16.052,7.108
16.056,7.824
16.06,8.296
16.064,7.64
16.068,7.084
16.072,7.696
16.076,8.316
16.08,7.784
16.084,7.128
16.088,7.564
16.092,8.252
16.096,7.864
16.1,7.18
16.104,7.436
16.108,8.16
16.112,7.984
16.116,7.292
16.12,7.328
16.124,8.056
16.128,8.112
16.132,7.424
16.136,7.228
16.14,7.968
16.144,8.236
16.148,7.54
16.152,7.144
16.156,7.82
16.16,8.324
16.164,7.696
16.168,7.108
16.172,7.708
16.176,8.312
16.18,7.796
16.184,7.148
16.188,7.632
16.192,8.284
16.196,7.928
16.2,7.224
16.204,7.524
16.208,8.228
16.212,8.02
16.216,7.324
16.22,7.42
16.224,8.192
16.228,8.252
16.232,7.52
16.236,7.292
16.24,8.08
16.244,8.332
16.248,7.656
16.252,7.276
16.256,7.996
16.26,8.444
16.264,7.82
16.268,7.232
16.272,7.848
16.276,8.428
16.28,7.94
16.284,7.276
16.288,7.752
16.292,8.392
16.296,7.996
16.3,7.248
16.304,7.476
16.308,8.188
16.312,7.984
16.316,7.3
16.32,7.32
16.324,8.072
16.328,8.132
16.332,7.432
16.336,7.216
16.34,7.96
16.344,8.216
16.348,7.516
16.352,7.1
16.356,7.764
16.36,8.176
16.364,7.596
16.368,7.244
16.372,8.436
16.376,9.908
16.38,10.276
16.384,10.332
16.388,10.824
16.392,10.884
16.396,9.736
16.4,8.228
16.404,7.712
16.408,8.016
16.412,7.6
16.416,6.8
16.42,6.928
16.424,7.848
16.428,8.056
16.432,7.52
16.436,7.412
16.44,8.18
16.444,8.424
16.448,7.724
16.452,7.328
16.456,8.024
16.46,8.512
16.464,7.904
16.468,7.34
16.472,7.936
16.476,8.54
16.48,8.028
16.484,7.404
16.488,7.824
16.492,8.504
16.496,8.136
16.5,7.468
16.504,7.772
16.508,8.468
16.512,8.3
16.516,7.616
16.52,7.684
16.524,8.412
16.528,8.484
16.532,7.8
16.536,7.644
16.54,8.372
16.544,8.656
16.548,8.008
16.552,7.636
16.556,8.34
16.56,8.82
16.564,8.228
16.568,7.728
16.572,8.352
16.576,8.96
16.58,8.508
16.584,7.876
16.588,8.368
16.592,9.06
16.596,8.764
16.6,8.132
16.604,8.448
16.608,9.224
16.612,9.064
16.616,8.448
16.62,8.576
16.624,9.284
16.628,9.376
16.632,8.744
16.636,8.608
16.64,9.352
16.644,9.62
16.648,8.956
16.652,8.544
16.656,9.14
16.66,9.496
16.664,8.78
16.668,8.14
16.672,8.612
16.676,9.128
16.68,8.516
16.684,7.796
16.688,8.164
16.692,8.716
16.696,8.28
16.7,7.572
16.704,7.756
16.708,8.42
16.712,8.24
16.716,7.536
16.72,7.536
16.724,8.212
16.728,8.244
16.732,7.568
16.736,7.388
16.74,8.056
16.744,8.328
16.748,7.68
16.752,7.288
16.756,7.92
16.76,8.356
16.764,7.752
16.768,7.228
16.772,7.812
16.776,8.372
16.78,7.888
16.784,7.284
16.788,7.72
16.792,8.328
16.796,7.992
16.8,7.352
16.804,7.616
16.808,8.28
16.812,8.12
16.816,7.448
16.82,7.512
16.824,8.188
16.828,8.188
16.832,7.564
16.836,7.388
16.84,8.064
16.844,8.312
16.848,7.668
16.852,7.308
16.856,7.968
16.86,8.384
16.864,7.784
16.868,7.284
16.872,7.828
16.876,8.376
16.88,7.896
16.884,7.284
16.888,7.728
16.892,8.312
16.896,7.944
16.9,7.304
16.904,7.58
16.908,8.204
16.912,8.06
16.916,7.408
16.92,7.5
16.924,8.132
16.928,8.152
16.932,7.476
16.936,7.332
16.94,7.984
16.944,8.236
16.948,7.6
16.952,7.264
16.956,7.88
16.96,8.288
16.964,7.716
16.968,7.196
16.972,7.74
16.976,8.288
16.98,7.808
16.984,7.248
16.988,7.668
16.992,8.236
16.996,7.888
17,7.268
17.004,7.528
17.008,8.152
17.012,7.988
17.016,7.332
17.02,7.436
17.024,8.104
17.028,8.088
17.032,7.46
17.036,7.34
17.04,7.94
17.044,8.18
17.048,7.572
17.052,7.252
17.056,7.884
17.06,8.272
17.064,7.692
17.068,7.204
17.072,7.728
17.076,8.268
17.08,7.784
17.084,7.204
17.088,7.624
17.092,8.216
17.096,7.888
17.1,7.28
17.104,7.536
17.108,8.14
17.112,8
17.116,7.352
17.12,7.448
17.124,8.08
17.128,8.096
17.132,7.48
17.136,7.352
17.14,7.956
17.144,8.196
17.148,7.608
17.152,7.288
17.156,7.872
17.16,8.268
17.164,7.696
17.168,7.2
17.172,7.72
17.176,8.248
17.18,7.796
17.184,7.224
17.188,7.632
17.192,8.216
17.196,7.872
17.2,7.308
17.204,7.552
17.208,8.172
17.212,7.984
17.216,7.396
17.22,7.452
17.224,8.108
17.228,8.16
17.232,7.588
17.236,7.42
17.24,8.004
17.244,8.24
17.248,7.656
17.252,7.356
17.256,7.936
17.26,8.372
17.264,7.812
17.268,7.332
17.272,7.832
17.276,8.348
17.28,7.88
17.284,7.296
17.288,7.736
17.292,8.36
17.296,7.996
17.3,7.364
17.304,7.552
17.308,8.148
17.312,7.952
17.316,7.348
17.32,7.44
17.324,8.06
17.328,8.084
17.332,7.468
17.336,7.328
17.34,7.92
17.344,8.18
17.348,7.568
17.352,7.236
17.356,7.776
17.36,8.192
17.364,7.576
17.368,7.1
17.372,7.752
17.376,8.704
17.38,9.084
17.384,9.428
17.388,10.628
17.392,11.528
17.396,10.768
17.4,9.4
17.404,8.788
17.408,8.572
17.412,7.888
17.416,7.008
17.42,6.936
17.424,7.552
17.428,7.756
17.432,7.352
17.436,7.388
17.44,8.104
17.444,8.344
17.448,7.732
17.452,7.404
17.456,8.004
17.46,8.388
17.464,7.856
17.468,7.412
17.472,7.92
17.476,8.436
17.48,7.98
17.484,7.428
17.488,7.828
17.492,8.416
17.496,8.108
17.5,7.508
17.504,7.776
17.508,8.392
17.512,8.248
17.516,7.608
17.52,7.72
17.524,8.356
17.528,8.38
17.532,7.784
17.536,7.716
17.54,8.324
17.544,8.572
17.548,7.984
17.552,7.72
17.556,8.284
17.56,8.756
17.564,8.216
17.568,7.748
17.572,8.308
17.576,8.872
17.58,8.432
17.584,7.944
17.588,8.36
17.592,9
17.596,8.72
17.6,8.188
17.604,8.488
17.608,9.164
17.612,9.048
17.616,8.484
17.62,8.604
17.624,9.268
17.628,9.344
17.632,8.78
17.636,8.716
17.64,9.344
17.644,9.632
17.648,9.068
17.652,8.724
17.656,9.248
17.66,9.608
17.664,8.976
17.668,8.444
17.672,8.832
17.676,9.24
17.68,8.668
17.684,8.024
17.688,8.304
17.692,8.788
17.696,8.38
17.7,7.744
17.704,7.944
17.708,8.46
17.712,8.236
17.716,7.6
17.72,7.648
17.724,8.244
17.728,8.236
17.732,7.604
17.736,7.5
17.74,8.068
17.744,8.292
17.748,7.7
17.752,7.36
17.756,7.932
17.76,8.332
17.764,7.8
17.768,7.328
17.772,7.816
17.776,8.368
17.78,7.9
17.784,7.308
17.788,7.736
17.792,8.312
17.796,7.988
17.8,7.404
17.804,7.66
17.808,8.264
17.812,8.1
17.816,7.488
17.82,7.576
17.824,8.18
17.828,8.2
17.832,7.596
17.836,7.48
17.84,8.076
17.844,8.312
17.848,7.732
17.852,7.42
17.856,7.96
17.86,8.392
17.864,7.808
17.868,7.364
17.872,7.832
17.876,8.388
17.88,7.984
17.884,7.384
17.888,7.784
17.892,8.332
17.896,7.996
17.9,7.408
17.904,7.66
17.908,8.252
17.912,8.072
17.916,7.48
17.92,7.596
17.924,8.148
17.928,8.188
17.932,7.564
17.936,7.468
17.94,8.044
17.944,8.252
17.948,7.668
17.952,7.368
17.956,7.908
17.96,8.324
17.964,7.748
17.968,7.284
17.972,7.784
17.976,8.308
17.98,7.852
17.984,7.324
17.988,7.708
17.992,8.272
17.996,7.932
18,7.34
18.004,7.604
18.008,8.188
18.012,8.012
18.016,7.412
18.02,7.528
18.024,8.108
18.028,8.136
18.032,7.516
18.036,7.4
18.04,7.992
18.044,8.22
18.048,7.648
18.052,7.308
18.056,7.868
18.06,8.288
18.064,7.728
18.068,7.264
18.072,7.748
18.076,8.288
18.08,7.828
18.084,7.272
18.088,7.66
18.092,8.24
18.096,7.92
18.1,7.312
18.104,7.584
18.108,8.2
18.112,8.02
18.116,7.404
18.12,7.508
18.124,8.092
18.128,8.12
18.132,7.496
18.136,7.4
18.14,7.968
18.144,8.228
18.148,7.612
18.152,7.304
18.156,7.864
18.16,8.284
18.164,7.756
18.168,7.268
18.172,7.776
18.176,8.276
18.18,7.84
18.184,7.272
18.188,7.7
18.192,8.28
18.196,7.944
18.2,7.344
18.204,7.592
18.208,8.212
18.212,8.064
18.216,7.436
18.22,7.532
18.224,8.136
18.228,8.196
18.232,7.62
18.236,7.52
18.24,8.104
18.244,8.344
18.248,7.712
18.252,7.416
18.256,7.996
18.26,8.456
18.264,7.888
18.268,7.424
18.272,7.892
18.276,8.404
18.28,7.98
18.284,7.392
18.288,7.776
18.292,8.364
18.296,8.088
18.3,7.476
18.304,7.704
18.308,8.232
18.312,8.028
18.316,7.4
18.32,7.512
18.324,8.084
18.328,8.132
18.332,7.516
18.336,7.416
18.34,8.004
18.344,8.208
18.348,7.6
18.352,7.312
18.356,7.872
18.36,8.24
18.364,7.66
18.368,7.176
18.372,7.648
18.376,8.328
18.38,8.296
18.384,8.584
18.388,9.876
18.392,11.228
18.396,11.236
18.4,10.208
18.404,9.728
18.408,9.468
18.412,8.448
18.416,7.352
18.42,7.172
18.424,7.64
18.428,7.668
18.432,7.204
18.436,7.32
18.44,8.048
18.444,8.388
18.448,7.8
18.452,7.496
18.456,8.016
18.46,8.46
18.464,7.928
18.468,7.492
18.472,7.948
18.476,8.504
18.48,8.064
18.484,7.524
18.488,7.916
18.492,8.468
18.496,8.184
18.5,7.584
18.504,7.864
18.508,8.452
18.512,8.288
18.516,7.704
18.52,7.816
18.524,8.416
18.528,8.448
18.532,7.84
18.536,7.772
18.54,8.356
18.544,8.628
18.548,8.024
18.552,7.772
18.556,8.336
18.56,8.728
18.564,8.228
18.568,7.808
18.572,8.34
18.576,8.884
18.58,8.464
18.584,7.952
18.588,8.36
18.592,8.96
18.596,8.692
18.6,8.156
18.604,8.492
18.608,9.092
18.612,8.996
18.616,8.448
18.62,8.608
18.624,9.204
18.628,9.3
18.632,8.744
18.636,8.692
18.64,9.308
18.644,9.568
18.648,9.02
18.652,8.728
18.656,9.256
18.66,9.66
18.664,9.068
18.668,8.532
18.672,8.936
18.676,9.368
18.68,8.78
18.684,8.128
18.688,8.424
18.692,8.896
18.696,8.472
18.7,7.824
18.704,8.016
18.708,8.52
18.712,8.312
18.716,7.636
18.72,7.712
18.724,8.244
18.728,8.268
18.732,7.624
18.736,7.528
18.74,8.072
18.744,8.324
18.748,7.708
18.752,7.408
18.756,7.932
18.76,8.328
18.764,7.792
18.768,7.332
18.772,7.816
18.776,8.344
18.78,7.888
18.784,7.348
18.788,7.752
18.792,8.284
18.796,7.96
18.8,7.376
18.804,7.696
18.808,8.24
18.812,8.092
18.816,7.508
18.82,7.628
18.824,8.144
18.828,8.176
18.832,7.588
18.836,7.492
18.84,8.08
18.844,8.296
18.848,7.672
18.852,7.412
18.856,7.952
18.86,8.344
18.864,7.812
18.868,7.372
18.872,7.844
18.876,8.368
18.88,7.944
18.884,7.364
18.888,7.772
18.892,8.332
18.896,8.008
18.9,7.396
18.904,7.668
18.908,8.24
18.912,8.056
18.916,7.448
18.92,7.568
18.924,8.128
18.928,8.164
18.932,7.556
18.936,7.472
18.94,7.992
18.944,8.224
18.948,7.624
18.952,7.344
18.956,7.872
18.96,8.292
18.964,7.76
18.968,7.308
18.972,7.776
18.976,8.3
18.98,7.844
18.984,7.304
18.988,7.724
18.992,8.248
18.996,7.92
19,7.312
19.004,7.616
19.008,8.18
19.012,8.004
19.016,7.416
19.02,7.532
19.024,8.08
19.028,8.132
19.032,7.492
19.036,7.424
19.04,7.976
19.044,8.228
19.048,7.62
19.052,7.332
19.056,7.848
19.06,8.272
19.064,7.74
19.068,7.276
19.072,7.748
19.076,8.276
19.08,7.84
19.084,7.272
19.088,7.684
19.092,8.224
19.096,7.892
19.1,7.312
19.104,7.6
19.108,8.152
19.112,8.004
19.116,7.392
19.12,7.508
19.124,8.064
19.128,8.12
19.132,7.508
19.136,7.392
19.14,7.956
19.144,8.22
19.148,7.608
19.152,7.316
19.156,7.84
19.16,8.288
19.164,7.724
19.168,7.272
19.172,7.752
19.176,8.268
19.18,7.828
19.184,7.268
19.188,7.688
19.192,8.204
19.196,7.916
19.2,7.316
19.204,7.592
19.208,8.156
19.212,8.032
19.216,7.436
19.22,7.524
19.224,8.076
19.228,8.14
19.232,7.544
19.236,7.472
19.24,8.052
19.244,8.304
19.248,7.692
19.252,7.38
19.256,7.944
19.26,8.372
19.264,7.864
19.268,7.396
19.272,7.884
19.276,8.396
19.28,7.932
19.284,7.384
19.288,7.784
19.292,8.328
19.296,8.028
19.3,7.448
19.304,7.752
19.308,8.268
19.312,8.076
19.316,7.376
19.32,7.468
19.324,8.052
19.328,8.1
19.332,7.46
19.336,7.384
19.34,7.928
19.344,8.196
19.348,7.62
19.352,7.276
19.356,7.812
19.36,8.264
19.364,7.684
19.368,7.18
19.372,7.62
19.376,8.152
19.38,7.776
19.384,7.504
19.388,8.616
19.392,10.1
19.396,10.648
19.4,10.624
19.404,10.656
19.408,10.56
19.412,9.584
19.416,8.12
19.42,7.544
19.424,7.8
19.428,7.688
19.432,7.012
19.436,7.036
19.44,7.792
19.444,8.22
19.448,7.732
19.452,7.496
19.456,8.016
19.46,8.44
19.464,7.876
19.468,7.432
19.472,7.908
19.476,8.456
19.48,8.028
19.484,7.456
19.488,7.888
19.492,8.428
19.496,8.152
19.5,7.548
19.504,7.852
19.508,8.396
19.512,8.268
19.516,7.628
19.52,7.748
19.524,8.332
19.528,8.416
19.532,7.816
19.536,7.736
19.54,8.284
19.544,8.548
19.548,7.996
19.552,7.72
19.556,8.276
19.56,8.716
19.564,8.188
19.568,7.732
19.572,8.264
19.576,8.812
19.58,8.388
19.584,7.86
19.588,8.316
19.592,8.888
19.596,8.62
19.6,8.064
19.604,8.388
19.608,8.996
19.612,8.9
19.616,8.34
19.62,8.492
19.624,9.108
19.628,9.188
19.632,8.66
19.636,8.608
19.64,9.176
19.644,9.476
19.648,8.96
19.652,8.692
19.656,9.224
19.66,9.624
19.664,9.108
19.668,8.648
19.672,9.036
19.676,9.472
19.68,8.948
19.684,8.292
19.688,8.556
19.692,8.968
19.696,8.584
19.7,7.948
19.704,8.128
19.708,8.6
19.712,8.376
19.716,7.744
19.72,7.752
19.724,8.268
19.728,8.292
19.732,7.656
19.736,7.524
19.74,8.052
19.744,8.3
19.748,7.712
19.752,7.416
19.756,7.904
19.76,8.316
19.764,7.768
19.768,7.356
19.772,7.82
19.776,8.32
19.78,7.872
19.784,7.356
19.788,7.708
19.792,8.26
19.796,7.94
19.8,7.392
19.804,7.624
19.808,8.208
19.812,8.056
19.816,7.496
19.82,7.58
19.824,8.1
19.828,8.172
19.832,7.58
19.836,7.496
19.84,8.004
19.844,8.264
19.848,7.724
19.852,7.416
19.856,7.94
19.86,8.348
19.864,7.788
19.868,7.38
19.872,7.848
19.876,8.328
19.88,7.9
19.884,7.376
19.888,7.772
19.892,8.264
19.896,8.004
19.9,7.432
19.904,7.68
19.908,8.2
19.912,8.064
19.916,7.48
19.92,7.548
19.924,8.092
19.928,8.132
19.932,7.564
19.936,7.456
19.94,7.956
19.944,8.248
19.948,7.664
19.952,7.376
19.956,7.86
19.96,8.288
19.964,7.744
19.968,7.292
19.972,7.784
19.976,8.252
19.98,7.836
19.984,7.324
19.988,7.696
19.992,8.232
19.996,7.912
20,7.344
20.004,7.596
20.008,8.136
20.012,7.992
20.016,7.408
20.02,7.5
20.024,8.048
20.028,8.128
20.032,7.5
20.036,7.384
20.04,7.92
20.044,8.208
20.048,7.604
20.052,7.316
20.056,7.832
20.06,8.288
20.064,7.74
20.068,7.244
20.072,7.724
20.076,8.276
20.08,7.824
20.084,7.276
20.088,7.656
20.092,8.196
20.096,7.904
20.1,7.292
20.104,7.584
20.108,8.128
20.112,8.004
20.116,7.412
20.12,7.488
20.124,8.052
20.128,8.112
20.132,7.504
20.136,7.404
20.14,7.92
20.144,8.216
20.148,7.632
20.152,7.308
20.156,7.832
20.16,8.26
20.164,7.7
20.168,7.268
20.172,7.756
20.176,8.248
20.18,7.8
20.184,7.272
20.188,7.68
20.192,8.22
20.196,7.888
20.2,7.332
20.204,7.604
20.208,8.16
20.212,8.02
20.216,7.412
20.22,7.492
20.224,8.056
20.228,8.148
20.232,7.556
20.236,7.504
20.24,8.064
20.244,8.28
20.248,7.656
20.252,7.376
20.256,7.924
20.26,8.388
20.264,7.84
20.268,7.392
20.272,7.892
20.276,8.38
20.28,7.916
20.284,7.368
20.288,7.776
20.292,8.316
20.296,8.028
20.3,7.472
20.304,7.68
20.308,8.204
20.312,8.004
20.316,7.36
20.32,7.48
20.324,8.02
20.328,8.108
20.332,7.44
20.336,7.364
20.34,7.872
20.344,8.156
20.348,7.56
20.352,7.268
20.356,7.784
20.36,8.24
20.364,7.604
20.368,7.116
20.372,7.58
20.376,8.136
20.38,7.908
20.384,7.976
20.388,9.3
20.392,10.696
20.396,11.088
20.4,10.476
20.404,10.148
20.408,9.9
20.412,8.912
20.416,7.496
20.42,7.232
20.424,7.584
20.428,7.592
20.432,7.04
20.436,7.12
20.44,7.86
20.444,8.288
20.448,7.732
20.452,7.448
20.456,7.956
20.46,8.428
20.464,7.86
20.468,7.38
20.472,7.908
20.476,8.444
20.48,8
20.484,7.42
20.488,7.864
20.492,8.436
20.496,8.136
20.5,7.508
20.504,7.8
20.508,8.384
20.512,8.252
20.516,7.612
20.52,7.744
20.524,8.296
20.528,8.404
20.532,7.772
20.536,7.704
20.54,8.288
20.544,8.584
20.548,7.972
20.552,7.692
20.556,8.252
20.56,8.704
20.564,8.156
20.568,7.716
20.572,8.276
20.576,8.804
20.58,8.392
20.584,7.86
20.588,8.28
20.592,8.88
20.596,8.62
20.6,8.088
20.604,8.392
20.608,8.96
20.612,8.896
20.616,8.336
20.62,8.472
20.624,9.068
20.628,9.228
20.632,8.636
20.636,8.596
20.64,9.196
20.644,9.508
20.648,8.92
20.652,8.644
20.656,9.208
20.66,9.636
20.664,9.028
20.668,8.544
20.672,8.952
20.676,9.372
20.68,8.816
20.684,8.144
20.688,8.456
20.692,8.88
20.696,8.5
20.7,7.812
20.704,7.996
20.708,8.468
20.712,8.312
20.716,7.62
20.72,7.696
20.724,8.16
20.728,8.24
20.732,7.576
20.736,7.488
20.74,8.016
20.744,8.288
20.748,7.672
20.752,7.348
20.756,7.896
20.76,8.312
20.764,7.756
20.768,7.268
20.772,7.764
20.776,8.32
20.78,7.852
20.784,7.3
20.788,7.672
20.792,8.22
20.796,7.964
20.8,7.344
20.804,7.624
20.808,8.136
20.812,8.072
20.816,7.436
20.82,7.54
20.824,8.076
20.828,8.168
20.832,7.516
20.836,7.448
20.84,7.976
20.844,8.28
20.848,7.676
20.852,7.38
20.856,7.908
20.86,8.308
20.864,7.784
20.868,7.292
20.872,7.828
20.876,8.332
20.88,7.888
20.884,7.344
20.888,7.744
20.892,8.244
20.896,7.964
20.9,7.332
20.904,7.616
20.908,8.148
20.912,8.048
20.916,7.42
20.92,7.532
20.924,8.06
20.928,8.132
20.932,7.5
20.936,7.42
20.94,7.94
20.944,8.2
20.948,7.6
20.952,7.304
20.956,7.856
20.96,8.26
20.964,7.756
20.968,7.264
20.972,7.74
20.976,8.216
20.98,7.82
20.984,7.264
20.988,7.672
20.992,8.168
20.996,7.892
21,7.292
21.004,7.592
21.008,8.084
21.012,8
21.016,7.36
21.02,7.496
21.024,8.02
21.028,8.088
21.032,7.46
21.036,7.372
21.04,7.904
21.044,8.176
21.048,7.56
21.052,7.3
21.056,7.824
21.06,8.204
21.064,7.688
21.068,7.232
21.072,7.724
21.076,8.212
21.08,7.796
21.084,7.276
21.088,7.64
21.092,8.152
21.096,7.888
21.1,7.292
21.104,7.556
21.108,8.08
21.112,7.964
21.116,7.348
21.12,7.476
21.124,8.004
21.128,8.08
21.132,7.452
21.136,7.364
21.14,7.896
21.144,8.184
21.148,7.588
21.152,7.3
21.156,7.82
21.16,8.228
21.164,7.692
21.168,7.224
21.172,7.74
21.176,8.216
21.18,7.792
21.184,7.26
21.188,7.66
21.192,8.188
21.196,7.892
21.2,7.312
21.204,7.592
21.208,8.092
21.212,8.012
21.216,7.372
21.22,7.508
21.224,8.076
21.228,8.168
21.232,7.516
21.236,7.46
21.24,7.992
21.244,8.26
21.248,7.68
21.252,7.396
21.256,7.956
21.26,8.364
21.264,7.804
21.268,7.308
21.272,7.804
21.276,8.296
21.28,7.876
21.284,7.344
21.288,7.776
21.292,8.28
21.296,7.964
21.3,7.296
21.304,7.536
21.308,8.056
21.312,7.936
21.316,7.304
21.32,7.484
21.324,7.984
21.328,8.052
21.332,7.404
21.336,7.364
21.34,7.892
21.344,8.12
21.348,7.544
21.352,7.188
21.356,7.712
21.36,8.084
21.364,7.584
21.368,7.308
21.372,8.348
21.376,9.704
21.38,10.16
21.384,10.372
21.388,10.876
21.392,10.82
21.396,9.756
21.4,8.344
21.404,7.828
21.408,7.924
21.412,7.592
21.416,6.824
21.42,7.008
21.424,7.7
21.428,7.976
21.432,7.52
21.436,7.544
21.44,8.1
21.444,8.332
21.448,7.724
21.452,7.428
21.456,7.992
21.46,8.4
21.464,7.888
21.468,7.432
21.472,7.932
21.476,8.4
21.48,7.984
21.484,7.448
21.488,7.86
21.492,8.364
21.496,8.124
21.5,7.52
21.504,7.816
21.508,8.348
21.512,8.248
21.516,7.62
21.52,7.8
21.524,8.34
21.528,8.416
21.532,7.792
21.536,7.764
21.54,8.32
21.544,8.58
21.548,8.016
21.552,7.74
21.556,8.3
21.56,8.72
21.564,8.24
21.568,7.788
21.572,8.34
21.576,8.864
21.58,8.468
21.584,7.912
21.588,8.4
21.592,8.94
21.596,8.752
21.6,8.176
21.604,8.524
21.608,9.092
21.612,9.06
21.616,8.44
21.62,8.62
21.624,9.22
21.628,9.328
21.632,8.744
21.636,8.684
21.64,9.288
21.644,9.552
21.648,8.98
21.652,8.628
21.656,9.12
21.66,9.452
21.664,8.836
21.668,8.252
21.672,8.656
21.676,9.024
21.68,8.504
21.684,7.84
21.688,8.172
21.692,8.616
21.696,8.268
21.7,7.568
21.704,7.856
21.708,8.32
21.712,8.144
21.716,7.488
21.72,7.596
21.724,8.12
21.728,8.148
21.732,7.508
21.736,7.44
21.74,7.992
21.744,8.236
21.748,7.6
21.752,7.3
21.756,7.864
21.76,8.248
21.764,7.7
21.768,7.232
21.772,7.756
21.776,8.228
21.78,7.828
21.784,7.252
21.788,7.7
21.792,8.192
21.796,7.928
21.8,7.28
21.804,7.6
21.808,8.132
21.812,8.04
21.816,7.376
21.82,7.528
21.824,8.08
21.828,8.108
21.832,7.504
21.836,7.444
21.84,7.976
21.844,8.236
21.848,7.628
21.852,7.336
21.856,7.892
21.86,8.264
21.864,7.752
21.868,7.268
21.872,7.792
21.876,8.268
21.88,7.864
21.884,7.284
21.888,7.7
21.892,8.192
21.896,7.928
21.9,7.284
21.904,7.592
21.908,8.12
21.912,8.016
21.916,7.364
21.92,7.5
21.924,8.04
21.928,8.064
21.932,7.432
21.936,7.4
21.94,7.952
21.944,8.172
21.948,7.596
21.952,7.296
21.956,7.856
21.96,8.208
21.964,7.672
21.968,7.176
21.972,7.728
21.976,8.232
21.98,7.804
21.984,7.212
21.988,7.64
21.992,8.176
21.996,7.868
22,7.24
22.004,7.568
22.008,8.092
22.012,7.996
22.016,7.312
22.02,7.452
22.024,8.012
22.028,8.068
22.032,7.424
22.036,7.368
22.04,7.916
22.044,8.152
22.048,7.56
22.052,7.256
22.056,7.82
22.06,8.2
22.064,7.676
22.068,7.192
22.072,7.728
22.076,8.184
22.08,7.792
22.084,7.2
22.088,7.676
22.092,8.16
22.096,7.888
22.1,7.236
22.104,7.58
22.108,8.072
22.112,7.968
22.116,7.316
22.12,7.516
22.124,8.068
22.128,8.048
22.132,7.412
22.136,7.344
22.14,7.916
22.144,8.156
22.148,7.556
22.152,7.268
22.156,7.836
22.16,8.216
22.164,7.676
22.168,7.188
22.172,7.756
22.176,8.228
22.18,7.816
22.184,7.2
22.188,7.612
22.192,8.216
22.196,7.856
22.2,7.284
22.204,7.652
22.208,8.26
22.212,8.036
22.216,7.38
22.22,7.556
22.224,8.168
22.228,8.148
22.232,7.548
22.236,7.468
22.24,8.096
22.244,8.26
22.248,7.636
22.252,7.356
22.256,7.972
22.26,8.36
22.264,7.792
22.268,7.34
22.272,7.86
22.276,8.344
22.28,7.76
22.284,7.18
22.288,7.68
22.292,8.204
22.296,7.852
22.3,7.24
22.304,7.572
22.308,8.128
22.312,7.968
22.316,7.296
22.32,7.468
22.324,8.06
22.328,8.04
22.332,7.292
22.336,7.228
22.34,7.84
22.344,8.16
22.348,7.896
22.352,8.428
22.356,9.94
22.36,11.156
22.364,11.024
22.368,10.108
22.372,9.944
22.376,9.608
22.38,8.304
22.384,7.164
22.388,7.376
22.392,7.768
22.396,7.356
22.4,6.884
22.404,7.412
22.408,8.184
22.412,8.056
22.416,7.488
22.42,7.6
22.424,8.216
22.428,8.244
22.432,7.572
22.436,7.488
22.44,8.148
22.444,8.304
22.448,7.744
22.452,7.44
22.456,8.084
22.46,8.468
22.464,7.876
22.468,7.4
22.472,7.96
22.476,8.524
22.48,8.016
22.484,7.448
22.488,7.932
22.492,8.556
22.496,8.16
22.5,7.56
22.504,7.908
22.508,8.508
22.512,8.324
22.516,7.712
22.52,7.832
22.524,8.5
22.528,8.532
22.532,7.908
22.536,7.86
22.54,8.488
22.544,8.696
22.548,8.12
22.552,7.856
22.556,8.496
22.56,8.924
22.564,8.404
22.568,7.98
22.572,8.592
22.576,9.132
22.58,8.7
22.584,8.16
22.588,8.688
22.592,9.284
22.596,9.004
22.6,8.42
22.604,8.82
22.608,9.452
22.612,9.268
22.616,8.692
22.62,8.828
22.624,9.468
22.628,9.416
22.632,8.764
22.636,8.608
22.64,9.14
22.644,9.208
22.648,8.5
22.652,8.092
22.656,8.584
22.66,8.884
22.664,8.228
22.668,7.664
22.672,8.156
22.676,8.6
22.68,8.036
22.684,7.408
22.688,7.844
22.692,8.368
22.696,8.008
22.7,7.384
22.704,7.648
22.708,8.216
22.712,8.016
22.716,7.38
22.72,7.464
22.724,8.104
22.728,8.068
22.732,7.464
22.736,7.404
22.74,8.02
22.744,8.188
22.748,7.58
22.752,7.284
22.756,7.9
22.76,8.28
22.764,7.684
22.768,7.22
22.772,7.816
22.776,8.308
22.78,7.84
22.784,7.244
22.788,7.692
22.792,8.268
22.796,7.916
22.8,7.3
22.804,7.628
22.808,8.2
22.812,8.016
22.816,7.404
22.82,7.532
22.824,8.108
22.828,8.116
22.832,7.456
22.836,7.428
22.84,8.044
22.844,8.2
22.848,7.588
22.852,7.296
22.856,7.908
22.86,8.292
22.864,7.704
22.868,7.22
22.872,7.82
22.876,8.328
22.88,7.784
22.884,7.24
22.888,7.672
22.892,8.24
22.896,7.868
22.9,7.244
22.904,7.568
22.908,8.152
22.912,7.96
22.916,7.316
22.92,7.476
22.924,8.076
22.928,8.052
22.932,7.408
22.936,7.352
22.94,7.96
22.944,8.16
22.948,7.532
22.952,7.208
22.956,7.852
22.96,8.224
22.964,7.656
22.968,7.164
22.972,7.736
22.976,8.244
22.98,7.764
22.984,7.192
22.988,7.68
22.992,8.208
22.996,7.828
23,7.224
23.004,7.544
23.008,8.14
23.012,7.928
23.016,7.312
23.02,7.44
23.024,8.056
23.028,8.052
23.032,7.416
23.036,7.324
23.04,7.96
23.044,8.144
23.048,7.544
23.052,7.244
23.056,7.852
23.06,8.22
23.064,7.624
23.068,7.184
23.072,7.732
23.076,8.264
23.08,7.792
23.084,7.176
23.088,7.672
23.092,8.22
23.096,7.844
23.1,7.22
23.104,7.548
23.108,8.148
23.112,7.932
23.116,7.312
23.12,7.436
23.124,8.044
23.128,8.036
23.132,7.416
23.136,7.376
23.14,7.992
23.144,8.176
23.148,7.572
23.152,7.204
23.156,7.932
23.16,8.312
23.164,7.76
23.168,7.28
23.172,7.844
23.176,8.348
23.18,7.908
23.184,7.328
23.188,7.764
23.192,8.348
23.196,7.976
23.2,7.336
23.204,7.676
23.208,8.232
23.212,8.016
23.216,7.436
23.22,7.588
23.224,8.176
23.228,8.136
23.232,7.488
23.236,7.376
23.24,8
23.244,8.132
23.248,7.528
23.252,7.24
23.256,7.836
23.26,8.192
23.264,7.636
23.268,7.164
23.272,7.76
23.276,8.2
23.28,7.736
23.284,7.172
23.288,7.58
23.292,8.04
23.296,7.72
23.3,7.252
23.304,8.004
23.308,9.336
23.312,10.012
23.316,10.26
23.32,10.8
23.324,10.932
23.328,10.132
23.332,8.744
23.336,7.86
23.34,7.896
23.344,7.796
23.348,7.032
23.352,6.756
23.356,7.508
23.36,8.068
23.364,7.672
23.368,7.328
23.372,7.944
23.376,8.388
23.38,7.908
23.384,7.356
23.388,7.824
23.392,8.36
23.396,8.032
23.4,7.432
23.404,7.752
23.408,8.316
23.412,8.14
23.416,7.52
23.42,7.664
23.424,8.276
23.428,8.236
23.432,7.656
23.436,7.612
23.44,8.2
23.444,8.4
23.448,7.804
23.452,7.56
23.456,8.172
23.46,8.556
23.464,8.024
23.468,7.552
23.472,8.176
23.476,8.652
23.48,8.172
23.484,7.664
23.488,8.176
23.492,8.72
23.496,8.372
23.5,7.772
23.504,8.172
23.508,8.784
23.512,8.576
23.516,8.016
23.52,8.204
23.524,8.856
23.528,8.892
23.532,8.324
23.536,8.296
23.54,8.948
23.544,9.18
23.548,8.644
23.552,8.404
23.556,9.064
23.56,9.52
23.564,8.956
23.568,8.556
23.572,9.172
23.576,9.636
23.58,9.164
23.584,8.552
23.588,8.988
23.592,9.456
23.596,9.012
23.6,8.284
23.604,8.536
23.608,9.024
23.612,8.692
23.616,7.964
23.62,8.048
23.624,8.548
23.628,8.484
23.632,7.764
23.636,7.628
23.64,8.216
23.644,8.368
23.648,7.708
23.652,7.376
23.656,7.968
23.66,8.34
23.664,7.744
23.668,7.292
23.672,7.828
23.676,8.336
23.68,7.808
23.684,7.252
23.688,7.7
23.692,8.28
23.696,7.892
23.7,7.292
23.704,7.624
23.708,8.188
23.712,7.996
23.716,7.376
23.72,7.5
23.724,8.108
23.728,8.092
23.732,7.476
23.736,7.412
23.74,8.032
23.744,8.22
23.748,7.604
23.752,7.316
23.756,7.92
23.76,8.292
23.764,7.748
23.768,7.252
23.772,7.844
23.776,8.36
23.78,7.824
23.784,7.268
23.788,7.728
23.792,8.296
23.796,7.932
23.8,7.3
23.804,7.64
23.808,8.248
23.812,8.016
23.816,7.368
23.82,7.516
23.824,8.14
23.828,8.108
23.832,7.476
23.836,7.416
23.84,8.04
23.844,8.22
23.848,7.592
23.852,7.272
23.856,7.9
23.86,8.268
23.864,7.728
23.868,7.232
23.872,7.796
23.876,8.272
23.88,7.76
23.884,7.176
23.888,7.688
23.892,8.22
23.896,7.848
23.9,7.212
23.904,7.584
23.908,8.192
23.912,7.948
23.916,7.324
23.92,7.448
23.924,8.056
23.928,8.048
23.932,7.392
23.936,7.32
23.94,7.968
23.944,8.192
23.948,7.536
23.952,7.256
23.956,7.892
23.96,8.248
23.964,7.632
23.968,7.196
23.972,7.784
23.976,8.268
23.98,7.756
23.984,7.188
23.988,7.668
23.992,8.268
23.996,7.844
24,7.18
24.004,7.552
24.008,8.156
24.012,7.948
24.016,7.268
24.02,7.452
24.024,8.076
24.028,8.068
24.032,7.388
24.036,7.328
24.04,7.972
24.044,8.188
24.048,7.496
24.052,7.204
24.056,7.872
24.06,8.272
24.064,7.636
24.068,7.136
24.072,7.768
24.076,8.3
24.08,7.752
24.084,7.168
24.088,7.672
24.092,8.256
24.096,7.864
24.1,7.224
24.104,7.588
24.108,8.256
24.112,8.052
24.116,7.396
24.12,7.548
24.124,8.188
24.128,8.148
24.132,7.488
24.136,7.468
24.14,8.112
24.144,8.332
24.148,7.68
24.152,7.312
24.156,7.988
24.16,8.392
24.164,7.784
24.168,7.272
24.172,7.908
24.176,8.464
24.18,7.888
24.184,7.26
24.188,7.7
24.192,8.296
24.196,7.888
24.2,7.204
24.204,7.576
24.208,8.192
24.212,7.936
24.216,7.304
24.22,7.46
24.224,8.072
24.228,8.1
24.232,7.356
24.236,7.296
24.24,7.928
24.244,8.096
24.248,7.412
24.252,7.18
24.256,8.108
24.26,9.216
24.264,9.496
24.268,9.836
24.272,11.016
24.276,11.38
24.28,10.24
24.284,8.812
24.288,8.508
24.292,8.368
24.296,7.688
24.3,6.836
24.304,7.068
24.308,7.76
24.312,7.744
24.316,7.292
24.32,7.572
24.324,8.276
24.328,8.248
24.332,7.588
24.336,7.516
24.34,8.18
24.344,8.356
24.348,7.708
24.352,7.444
24.356,8.088
24.36,8.472
24.364,7.844
24.368,7.388
24.372,7.996
24.376,8.508
24.38,8.012
24.384,7.42
24.388,7.96
24.392,8.52
24.396,8.164
24.4,7.524
24.404,7.884
24.408,8.544
24.412,8.316
24.416,7.696
24.42,7.832
24.424,8.496
24.428,8.468
24.432,7.84
24.436,7.812
24.44,8.468
24.444,8.704
24.448,8.036
24.452,7.792
24.456,8.456
24.46,8.892
24.464,8.32
24.468,7.896
24.472,8.488
24.476,9.048
24.48,8.58
24.484,8.048
24.488,8.628
24.492,9.26
24.496,8.92
24.5,8.32
24.504,8.72
24.508,9.432
24.512,9.22
24.516,8.572
24.52,8.804
24.524,9.488
24.528,9.472
24.532,8.816
24.536,8.768
24.54,9.356
24.544,9.508
24.548,8.756
24.552,8.352
24.556,8.896
24.56,9.16
24.564,8.46
24.568,7.832
24.572,8.392
24.576,8.78
24.58,8.216
24.584,7.532
24.588,7.996
24.592,8.516
24.596,8.096
24.6,7.428
24.604,7.728
24.608,8.316
24.612,8.08
24.616,7.412
24.62,7.536
24.624,8.2
24.628,8.16
24.632,7.472
24.636,7.416
24.64,8.052
24.644,8.208
24.648,7.596
24.652,7.296
24.656,7.932
24.66,8.328
24.664,7.696
24.668,7.244
24.672,7.84
24.676,8.352
24.68,7.816
24.684,7.256
24.688,7.732
24.692,8.296
24.696,7.936
24.7,7.332
24.704,7.672
24.708,8.272
24.712,8.056
24.716,7.412
24.72,7.548
24.724,8.176
24.728,8.14
24.732,7.472
24.736,7.448
24.74,8.06
24.744,8.3
24.748,7.668
24.752,7.34
24.756,7.924
24.76,8.356
24.764,7.764
24.768,7.284
24.772,7.844
24.776,8.364
24.78,7.824
24.784,7.236
24.788,7.72
24.792,8.276
24.796,7.904
24.8,7.32
24.804,7.616
24.808,8.244
24.812,8.004
24.816,7.384
24.82,7.52
24.824,8.1
24.828,8.112
24.832,7.456
24.836,7.404
24.84,8
24.844,8.164
24.848,7.572
24.852,7.288
24.856,7.904
24.86,8.264
24.864,7.672
24.868,7.2
24.872,7.808
24.876,8.264
24.88,7.744
24.884,7.168
24.888,7.688
24.892,8.212
24.896,7.84
24.9,7.228
24.904,7.572
24.908,8.156
24.912,7.928
24.916,7.3
24.92,7.448
24.924,8.084
24.928,8.048
24.932,7.396
24.936,7.388
24.94,7.992
24.944,8.176
24.948,7.512
24.952,7.264
24.956,7.872
24.96,8.228
24.964,7.664
24.968,7.2
24.972,7.752
24.976,8.244
24.98,7.776
24.984,7.224
24.988,7.668
24.992,8.22
24.996,7.816
25,7.248
25.004,7.584
25.008,8.164
25.012,7.932
25.016,7.328
25.02,7.504
25.024,8.116
25.028,8.072
25.032,7.404
25.036,7.392
25.04,8.056
25.044,8.224
25.048,7.6
25.052,7.336
25.056,7.976
25.06,8.32
25.064,7.7
25.068,7.3
25.072,7.908
25.076,8.392
25.08,7.88
25.084,7.312
25.088,7.808
25.092,8.356
25.096,7.968
25.1,7.32
25.104,7.676
25.108,8.344
25.112,8.08
25.116,7.352
25.12,7.532
25.124,8.088
25.128,8.028
25.132,7.368
25.136,7.352
25.14,8
25.144,8.16
25.148,7.504
25.152,7.228
25.156,7.864
25.16,8.256
25.164,7.616
25.168,7.152
25.172,7.732
25.176,8.192
25.18,7.632
25.184,7.052
25.188,7.768
25.192,8.788
25.196,9.264
25.2,9.52
25.204,10.636
25.208,11.52
25.212,10.756
25.216,9.332
25.22,8.668
25.224,8.496
25.228,7.98
25.232,7.06
25.236,6.856
25.24,7.512
25.244,7.852
25.248,7.412
25.252,7.296
25.256,8.016
25.26,8.428
25.264,7.812
25.268,7.348
25.272,7.912
25.276,8.424
25.28,7.9
25.284,7.364
25.288,7.856
25.292,8.428
25.296,8.048
25.3,7.412
25.304,7.816
25.308,8.408
25.312,8.176
25.316,7.504
25.32,7.748
25.324,8.356
25.328,8.352
25.332,7.652
25.336,7.632
25.34,8.292
25.344,8.488
25.348,7.86
25.352,7.628
25.356,8.276
25.36,8.636
25.364,8.048
25.368,7.636
25.372,8.252
25.376,8.756
25.38,8.248
25.384,7.72
25.388,8.208
25.392,8.828
25.396,8.48
25.4,7.908
25.404,8.292
25.408,8.924
25.412,8.776
25.416,8.176
25.42,8.416
25.424,9.092
25.428,9.072
25.432,8.484
25.436,8.496
25.44,9.172
25.444,9.356
25.448,8.784
25.452,8.564
25.456,9.236
25.46,9.62
25.464,9.064
25.468,8.624
25.472,9.164
25.476,9.576
25.48,8.96
25.484,8.34
25.488,8.728
25.492,9.148
25.496,8.684
25.5,7.956
25.504,8.244
25.508,8.736
25.512,8.388
25.516,7.692
25.52,7.816
25.524,8.388
25.528,8.244
25.532,7.576
25.536,7.532
25.54,8.152
25.544,8.268
25.548,7.576
25.552,7.344
25.556,8.008
25.56,8.316
25.564,7.672
25.568,7.24
25.572,7.852
25.576,8.336
25.58,7.796
25.584,7.216
25.588,7.736
25.592,8.296
25.596,7.908
25.6,7.268
25.604,7.64
25.608,8.24
25.612,8.02
25.616,7.348
25.62,7.56
25.624,8.164
25.628,8.112
25.632,7.432
25.636,7.456
25.64,8.108
25.644,8.236
25.648,7.588
25.652,7.344
25.656,7.976
25.66,8.352
25.664,7.724
25.668,7.284
25.672,7.856
25.676,8.392
25.68,7.844
25.684,7.248
25.688,7.788
25.692,8.348
25.696,7.904
25.7,7.256
25.704,7.676
25.708,8.268
25.712,8.012
25.716,7.344
25.72,7.532
25.724,8.18
25.728,8.124
25.732,7.428
25.736,7.392
25.74,8.076
25.744,8.232
25.748,7.564
25.752,7.28
25.756,7.952
25.76,8.292
25.764,7.668
25.768,7.204
25.772,7.804
25.776,8.324
25.78,7.776
25.784,7.176
25.788,7.68
25.792,8.3
25.796,7.892
25.8,7.232
25.804,7.584
25.808,8.22
25.812,7.964
25.816,7.32
25.82,7.488
25.824,8.12
25.828,8.084
25.832,7.396
25.836,7.392
25.84,8.028
25.844,8.2
25.848,7.536
25.852,7.264
25.856,7.896
25.86,8.276
25.864,7.632
25.868,7.176
25.872,7.776
25.876,8.308
25.88,7.764
25.884,7.168
25.888,7.716
25.892,8.224
25.896,7.864
25.9,7.24
25.904,7.592
25.908,8.176
25.912,7.932
25.916,7.296
25.92,7.484
25.924,8.108
25.928,8.04
25.932,7.404
25.936,7.364
25.94,8
25.944,8.168
25.948,7.532
25.952,7.292
25.956,7.948
25.96,8.232
25.964,7.636
25.968,7.204
25.972,7.864
25.976,8.344
25.98,7.852
25.984,7.272
25.988,7.768
25.992,8.312
25.996,7.952
26,7.34
26.004,7.708
26.008,8.352
26.012,8.064
26.016,7.42
26.02,7.608
26.024,8.208
26.028,8.172
26.032,7.464
26.036,7.496
26.04,8.136
26.044,8.264
26.048,7.58
26.052,7.288
26.056,7.896
26.06,8.24
26.064,7.612
26.068,7.164
26.072,7.764
26.076,8.284
26.08,7.736
26.084,7.188
26.088,7.7
26.092,8.256
26.096,7.812
26.1,7.172
26.104,7.504
26.108,8.056
26.112,7.836
26.116,7.272
26.12,7.828
26.124,9.216
26.128,10.068
26.132,10.228
26.136,10.716
26.14,11.004
26.144,10.48
26.148,8.952
26.152,7.892
26.156,7.908
26.16,7.984
26.164,7.168
26.168,6.68
26.172,7.42
26.176,8.104
26.18,7.748
26.184,7.304
26.188,7.9
26.192,8.416
26.196,8.004
26.2,7.352
26.204,7.756
26.208,8.376
26.212,8.104
26.216,7.46
26.22,7.652
26.224,8.324
26.228,8.248
26.232,7.612
26.236,7.592
26.24,8.256
26.244,8.416
26.248,7.72
26.252,7.484
26.256,8.168
26.26,8.548
26.264,7.904
26.268,7.496
26.272,8.096
26.276,8.628
26.28,8.116
26.284,7.52
26.288,8.108
26.292,8.664
26.296,8.308
26.3,7.632
26.304,8.048
26.308,8.704
26.312,8.464
26.316,7.848
26.32,8.076
26.324,8.744
26.328,8.716
26.332,8.104
26.336,8.112
26.34,8.8
26.344,9.004
26.348,8.4
26.352,8.192
26.356,8.86
26.36,9.284
26.364,8.756
26.368,8.356
26.372,8.98
26.376,9.54
26.38,9.044
26.384,8.516
26.388,9.092
26.392,9.66
26.396,9.232
26.4,8.6
26.404,8.948
26.408,9.468
26.412,9.124
26.416,8.36
26.42,8.44
26.424,8.948
26.428,8.808
26.432,8.052
26.436,7.968
26.44,8.484
26.444,8.564
26.448,7.84
26.452,7.524
26.456,8.128
26.46,8.44
26.464,7.796
26.468,7.324
26.472,7.88
26.476,8.368
26.48,7.812
26.484,7.244
26.488,7.76
26.492,8.292
26.496,7.904
26.5,7.284
26.504,7.668
26.508,8.24
26.512,7.96
26.516,7.356
26.52,7.54
26.524,8.156
26.528,8.088
26.532,7.432
26.536,7.42
26.54,8.056
26.544,8.196
26.548,7.544
26.552,7.344
26.556,7.98
26.56,8.316
26.564,7.668
26.568,7.248
26.572,7.86
26.576,8.348
26.58,7.784
26.584,7.276
26.588,7.752
26.592,8.324
26.596,7.92
26.6,7.304
26.604,7.688
26.608,8.288
26.612,8.028
26.616,7.344
26.62,7.564
26.624,8.172
26.628,8.148
26.632,7.464
26.636,7.432
26.64,8.08
26.644,8.224
26.648,7.56
26.652,7.304
26.656,7.972
26.66,8.296
26.664,7.668
26.668,7.232
26.672,7.84
26.676,8.308
26.68,7.768
26.684,7.204
26.688,7.7
26.692,8.304
26.696,7.848
26.7,7.224
26.704,7.612
26.708,8.212
26.712,7.976
26.716,7.264
26.72,7.456
26.724,8.112
26.728,8.068
26.732,7.42
26.736,7.348
26.74,8.016
26.744,8.192
26.748,7.516
26.752,7.236
26.756,7.896
26.76,8.232
26.764,7.596
26.768,7.164
26.772,7.82
26.776,8.256
26.78,7.752
26.784,7.156
26.788,7.66
26.792,8.224
26.796,7.828
26.8,7.216
26.804,7.576
26.808,8.18
26.812,7.912
26.816,7.3
26.82,7.496
26.824,8.132
26.828,8.02
26.832,7.364
26.836,7.372
26.84,7.98
26.844,8.148
26.848,7.5
26.852,7.232
26.856,7.876
26.86,8.232
26.864,7.636
26.868,7.212
26.872,7.76
26.876,8.284
26.88,7.736
26.884,7.168
26.888,7.712
26.892,8.26
26.896,7.852
26.9,7.228
26.904,7.636
26.908,8.252
26.912,8.06
26.916,7.412
26.92,7.568
26.924,8.192
26.928,8.128
26.932,7.476
26.936,7.504
26.94,8.128
26.944,8.332
26.948,7.652
26.952,7.38
26.956,7.984
26.96,8.368
26.964,7.744
26.968,7.288
26.972,7.904
26.976,8.428
26.98,7.88
26.984,7.26
26.988,7.74
26.992,8.252
26.996,7.84
27,7.176
27.004,7.584
27.008,8.148
27.012,7.96
27.016,7.304
27.02,7.508
27.024,8.116
27.028,8.06
27.032,7.396
27.036,7.356
27.04,7.944
27.044,8.052
27.048,7.416
27.052,7.168
27.056,8.136
27.06,9.152
27.064,9.464
27.068,9.836
27.072,11.088
27.076,11.396
27.08,10.208
27.084,8.72
27.088,8.424
27.092,8.296
27.096,7.592
27.1,6.76
27.104,7.064
27.108,7.804
27.112,7.724
27.116,7.268
27.12,7.624
27.124,8.288
27.128,8.2
27.132,7.524
27.136,7.54
27.14,8.204
27.144,8.328
27.148,7.672
27.152,7.468
27.156,8.108
27.16,8.468
27.164,7.82
27.168,7.416
27.172,8.024
27.176,8.496
27.18,7.952
27.184,7.436
27.188,7.932
27.192,8.508
27.196,8.156
27.2,7.512
27.204,7.908
27.208,8.512
27.212,8.292
27.216,7.628
27.22,7.868
27.224,8.52
27.228,8.456
27.232,7.784
27.236,7.836
27.24,8.464
27.244,8.66
27.248,8.032
27.252,7.832
27.256,8.496
27.26,8.86
27.264,8.296
27.268,7.88
27.272,8.516
27.276,9.056
27.28,8.592
27.284,8.048
27.288,8.628
27.292,9.252
27.296,8.888
27.3,8.292
27.304,8.748
27.308,9.42
27.312,9.192
27.316,8.596
27.32,8.808
27.324,9.496
27.328,9.456
27.332,8.816
27.336,8.752
27.34,9.372
27.344,9.476
27.348,8.74
27.352,8.348
27.356,8.912
27.36,9.168
27.364,8.424
27.368,7.892
27.372,8.372
27.376,8.796
27.38,8.192
27.384,7.52
27.388,7.944
27.392,8.548
27.396,8.08
27.4,7.412
27.404,7.744
27.408,8.32
27.412,8.068
27.416,7.34
27.42,7.58
27.424,8.18
27.428,8.128
27.432,7.472
27.436,7.468
27.44,8.08
27.444,8.196
27.448,7.552
27.452,7.316
27.456,7.944
27.46,8.332
27.464,7.692
27.468,7.224
27.472,7.872
27.476,8.3
27.48,7.74
27.484,7.22
27.488,7.776
27.492,8.332
27.496,7.892
27.5,7.276
27.504,7.672
27.508,8.34
27.512,7.972
27.516,7.356
27.52,7.564
27.524,8.32
27.528,8.104
27.532,7.468
27.536,7.464
27.54,8.232
27.544,8.196
27.548,7.568
27.552,7.344
27.556,8.136
27.56,8.3
27.564,7.676
27.568,7.276
27.572,7.964
27.576,8.356
27.58,7.788
27.584,7.228
27.588,7.772
27.592,8.34
27.596,7.912
27.6,7.276
27.604,7.64
27.608,8.34
27.612,7.968
27.616,7.32
27.62,7.544
27.624,8.272
27.628,8.064
27.632,7.404
27.636,7.404
27.64,8.212
27.644,8.188
27.648,7.512
27.652,7.276
27.656,8.04
27.66,8.268
27.664,7.612
27.668,7.196
27.672,7.888
27.676,8.312
27.68,7.728
27.684,7.164
27.688,7.696
27.692,8.3
27.696,7.852
27.7,7.196
27.704,7.608
27.708,8.3
27.712,7.924
27.716,7.276
27.72,7.476
27.724,8.236
27.728,8.056
27.732,7.364
27.736,7.38
27.74,8.18
27.744,8.192
27.748,7.476
27.752,7.236
27.756,8.04
27.76,8.264
27.764,7.62
27.768,7.192
27.772,7.86
27.776,8.324
27.78,7.728
27.784,7.172
27.788,7.7
27.792,8.304
27.796,7.84
27.8,7.2
27.804,7.608
27.808,8.308
27.812,7.98
27.816,7.268
27.82,7.496
27.824,8.264
27.828,8.088
27.832,7.396
27.836,7.416
27.84,8.264
27.844,8.32
27.848,7.596
27.852,7.344
27.856,8.024
27.86,8.396
27.864,7.752
27.868,7.296
27.872,7.928
27.876,8.468
27.88,7.932
27.884,7.292
27.888,7.836
27.892,8.424
27.896,8.016
27.9,7.32
27.904,7.768
27.908,8.372
27.912,8.096
27.916,7.364
27.92,7.528
27.924,8.176
27.928,8.096
27.932,7.396
27.936,7.392
27.94,8.056
27.944,8.224
27.948,7.5
27.952,7.272
27.956,7.936
27.96,8.296
27.964,7.652
27.968,7.156
27.972,7.716
27.976,8.208
27.98,7.68
27.984,7.232
27.988,8.216
27.992,9.636
27.996,10.076
28,10.212
28.004,10.884
28.008,10.98
28.012,9.96
28.016,8.412
28.02,7.84
28.024,8.108
28.028,7.808
28.032,6.936
28.036,6.896
28.04,7.712
28.044,8.052
28.048,7.552
28.052,7.42
28.056,8.104
28.06,8.46
28.064,7.824
28.068,7.384
28.072,8
28.076,8.492
28.08,7.976
28.084,7.396
28.088,7.924
28.092,8.512
28.096,8.104
28.1,7.472
28.104,7.832
28.108,8.472
28.112,8.244
28.116,7.572
28.12,7.808
28.124,8.48
28.128,8.404
28.132,7.7
28.136,7.708
28.14,8.36
28.144,8.548
28.148,7.92
28.152,7.68
28.156,8.356
28.16,8.712
28.164,8.104
28.168,7.68
28.172,8.316
28.176,8.836
28.18,8.34
28.184,7.784
28.188,8.356
28.192,8.96
28.196,8.576
28.2,7.944
28.204,8.396
28.208,9.044
28.212,8.852
28.216,8.228
28.22,8.496
28.224,9.216
28.228,9.2
28.232,8.516
28.236,8.58
28.24,9.276
28.244,9.496
28.248,8.864
28.252,8.664
28.256,9.316
28.26,9.696
28.264,9.064
28.268,8.58
28.272,9.14
28.276,9.56
28.28,8.936
28.284,8.228
28.288,8.636
28.292,9.136
28.296,8.608
28.3,7.86
28.304,8.176
28.308,8.696
28.312,8.384
28.316,7.636
28.32,7.776
28.324,8.388
28.328,8.284
28.332,7.58
28.336,7.544
28.34,8.14
28.344,8.296
28.348,7.616
28.352,7.372
28.356,7.992
28.36,8.336
28.364,7.704
28.368,7.284
28.372,7.868
28.376,8.356
28.38,7.824
28.384,7.252
28.388,7.792
28.392,8.336
28.396,7.936
28.4,7.248
28.404,7.676
28.408,8.256
28.412,8.032
28.416,7.328
28.42,7.564
28.424,8.236
28.428,8.164
28.432,7.464
28.436,7.456
28.44,8.136
28.444,8.276
28.448,7.564
28.452,7.36
28.456,8.008
28.46,8.34
28.464,7.716
28.468,7.248
28.472,7.892
28.476,8.396
28.48,7.852
28.484,7.264
28.488,7.788
28.492,8.388
28.496,7.976
28.5,7.272
28.504,7.68
28.508,8.28
28.512,8.064
28.516,7.344
28.52,7.54
28.524,8.216
28.528,8.136
28.532,7.428
28.536,7.436
28.54,8.072
28.544,8.26
28.548,7.568
28.552,7.304
28.556,7.932
28.56,8.288
28.564,7.668
28.568,7.196
28.572,7.82
28.576,8.3
28.58,7.772
28.584,7.176
28.588,7.712
28.592,8.304
28.596,7.88
28.6,7.224
28.604,7.652
28.608,8.248
28.612,8.008
28.616,7.292
28.62,7.504
28.624,8.168
28.628,8.112
28.632,7.38
28.636,7.388
28.64,8.084
28.644,8.228
28.648,7.496
28.652,7.264
28.656,7.932
28.66,8.292
28.664,7.636
28.668,7.184
28.672,7.804
28.676,8.324
28.68,7.792
28.684,7.164
28.688,7.708
28.692,8.312
28.696,7.884
28.7,7.196
28.704,7.632
28.708,8.224
28.712,8.012
28.716,7.272
28.72,7.516
28.724,8.156
28.728,8.08
28.732,7.384
28.736,7.412
28.74,8.06
28.744,8.2
28.748,7.536
28.752,7.268
28.756,7.912
28.76,8.252
28.764,7.652
28.768,7.212
28.772,7.848
28.776,8.324
28.78,7.828
28.784,7.244
28.788,7.8
28.792,8.4
28.796,7.984
28.8,7.304
28.804,7.692
28.808,8.332
28.812,8.116
28.816,7.392
28.82,7.692
28.824,8.316
28.828,8.204
28.832,7.512
28.836,7.524
28.84,8.148
28.844,8.308
28.848,7.636
28.852,7.44
28.856,8.048
28.86,8.368
28.864,7.68
28.868,7.2
28.872,7.816
28.876,8.3
28.88,7.796
28.884,7.18
28.888,7.72
28.892,8.312
28.896,7.872
28.9,7.2
28.904,7.592
28.908,8.244
28.912,7.988
28.916,7.228
28.92,7.42
28.924,8.044
28.928,8.004
28.932,7.488
28.936,8.072
28.94,9.628
28.944,10.66
28.948,10.72
28.952,10.528
28.956,10.58
28.96,10.116
28.964,8.692
28.968,7.436
28.972,7.648
28.976,7.908
28.98,7.284
28.984,6.752
28.988,7.448
28.992,8.236
28.996,7.944
29,7.384
29.004,7.792
29.008,8.396
29.012,8.14
29.016,7.444
29.02,7.704
29.024,8.352
29.028,8.268
29.032,7.56
29.036,7.592
29.04,8.248
29.044,8.38
29.048,7.74
29.052,7.48
29.056,8.152
29.06,8.496
29.064,7.872
29.068,7.46
29.072,8.08
29.076,8.572
29.08,8.064
29.084,7.488
29.088,8.048
29.092,8.644
29.096,8.232
29.1,7.592
29.104,7.972
29.108,8.632
29.112,8.432
29.116,7.744
29.12,8.004
29.124,8.664
29.128,8.62
29.132,7.924
29.136,7.984
29.14,8.656
29.144,8.84
29.148,8.24
29.152,8.044
29.156,8.744
29.16,9.12
29.164,8.576
29.168,8.152
29.172,8.816
29.176,9.36
29.18,8.896
29.184,8.36
29.188,8.928
29.192,9.56
29.196,9.224
29.2,8.568
29.204,8.988
29.208,9.612
29.212,9.36
29.216,8.668
29.22,8.832
29.224,9.384
29.228,9.192
29.232,8.396
29.236,8.336
29.24,8.804
29.244,8.892
29.248,8.144
29.252,7.824
29.256,8.388
29.26,8.66
29.264,8
29.268,7.476
29.272,8.04
29.276,8.476
29.28,7.94
29.284,7.304
29.288,7.864
29.292,8.424
29.296,7.964
29.3,7.308
29.304,7.716
29.308,8.312
29.312,8.036
29.316,7.34
29.32,7.58
29.324,8.232
29.328,8.124
29.332,7.428
29.336,7.468
29.34,8.112
29.344,8.236
29.348,7.564
29.352,7.368
29.356,8.012
29.36,8.348
29.364,7.748
29.368,7.276
29.372,7.908
29.376,8.392
29.38,7.876
29.384,7.264
29.388,7.808
29.392,8.404
29.396,7.988
29.4,7.332
29.404,7.724
29.408,8.3
29.412,8.052
29.416,7.388
29.42,7.608
29.424,8.256
29.428,8.192
29.432,7.496
29.436,7.496
29.44,8.116
29.444,8.248
29.448,7.632
29.452,7.38
29.456,8.048
29.46,8.344
29.464,7.768
29.468,7.288
29.472,7.892
29.476,8.36
29.48,7.852
29.484,7.24
29.488,7.8
29.492,8.38
29.496,7.956
29.5,7.292
29.504,7.704
29.508,8.26
29.512,8.012
29.516,7.34
29.52,7.572
29.524,8.252
29.528,8.112
29.532,7.452
29.536,7.468
29.54,8.104
29.544,8.212
29.548,7.564
29.552,7.304
29.556,7.956
29.56,8.308
29.564,7.696
29.568,7.276
29.572,7.864
29.576,8.34
29.58,7.808
29.584,7.224
29.588,7.764
29.592,8.336
29.596,7.904
29.6,7.248
29.604,7.64
29.608,8.264
29.612,8.012
29.616,7.34
29.62,7.548
29.624,8.184
29.628,8.112
29.632,7.424
29.636,7.428
29.64,8.056
29.644,8.168
29.648,7.56
29.652,7.328
29.656,7.928
29.66,8.288
29.664,7.672
29.668,7.256
29.672,7.868
29.676,8.324
29.68,7.796
29.684,7.216
29.688,7.748
29.692,8.316
29.696,7.896
29.7,7.224
29.704,7.672
29.708,8.256
29.712,8.036
29.716,7.324
29.72,7.576
29.724,8.168
29.728,8.112
29.732,7.46
29.736,7.5
29.74,8.164
29.744,8.276
29.748,7.636
29.752,7.416
29.756,8.044
29.76,8.412
29.764,7.8
29.768,7.376
29.772,7.98
29.776,8.432
29.78,7.928
29.784,7.308
29.788,7.86
29.792,8.408
29.796,8.016
29.8,7.392
29.804,7.772
29.808,8.352
29.812,8.028
29.816,7.328
29.82,7.532
29.824,8.144
29.828,8.064
29.832,7.42
29.836,7.428
29.84,8.056
29.844,8.18
29.848,7.564
29.852,7.324
29.856,7.964
29.86,8.268
29.864,7.6
29.868,7.116
29.872,7.696
29.876,8.236
29.88,7.992
29.884,8.064
29.888,9.524
29.892,10.936
29.896,11.18
29.9,10.384
29.904,10.204
29.908,9.924
29.912,8.848
29.916,7.46
29.92,7.312
29.924,7.72
29.928,7.536
29.932,6.992
29.936,7.204
29.94,8.036
29.944,8.3
29.948,7.724
29.952,7.488
29.956,8.112
29.96,8.416
29.964,7.824
29.968,7.384
29.972,8.024
29.976,8.5
29.98,7.984
29.984,7.428
29.988,7.964
29.992,8.536
29.996,8.104
30,7.464
30.004,7.868
30.008,8.488
30.012,8.236
30.016,7.592
30.02,7.808
30.024,8.456
30.028,8.38
30.032,7.732
30.036,7.736
30.04,8.396
30.044,8.544
30.048,7.924
30.052,7.728
30.056,8.376
30.06,8.772
30.064,8.156
30.068,7.684
30.072,8.356
30.076,8.852
30.08,8.392
30.084,7.836
30.088,8.388
30.092,9
30.096,8.62
30.1,8
30.104,8.456
30.108,9.112
30.112,8.9
30.116,8.304
30.12,8.556
30.124,9.216
30.128,9.208
30.132,8.612
30.136,8.648
30.14,9.336
30.144,9.512
30.148,8.924
30.152,8.704
30.156,9.32
30.16,9.664
30.164,9.028
30.168,8.516
30.172,9.028
30.176,9.412
30.18,8.8
30.184,8.088
30.188,8.516
30.192,9.024
30.196,8.504
30.2,7.728
30.204,8.056
30.208,8.604
30.212,8.264
30.216,7.548
30.22,7.732
30.224,8.336
30.228,8.224
30.232,7.536
30.236,7.512
30.24,8.136
30.244,8.26
30.248,7.636
30.252,7.352
30.256,8.008
30.26,8.352
30.264,7.732
30.268,7.256
30.272,7.888
30.276,8.368
30.28,7.856
30.284,7.22
30.288,7.752
30.292,8.336
30.296,7.936
30.3,7.268
30.304,7.676
30.308,8.292
30.312,8.024
30.316,7.364
30.32,7.592
30.324,8.208
30.328,8.152
30.332,7.492
30.336,7.504
30.34,8.132
30.344,8.252
30.348,7.62
30.352,7.388
30.356,8.008
30.36,8.376
30.364,7.788
30.368,7.32
30.372,7.912
30.376,8.396
30.38,7.892
30.384,7.276
30.388,7.836
30.392,8.408
30.396,7.984
30.4,7.312
30.404,7.724
30.408,8.328
30.412,8.032
30.416,7.364
30.42,7.572
30.424,8.228
30.428,8.152
30.432,7.456
30.436,7.468
30.44,8.108
30.444,8.212
30.448,7.608
30.452,7.34
30.456,7.964
30.46,8.308
30.464,7.716
30.468,7.24
30.472,7.848
30.476,8.328
30.48,7.776
30.484,7.216
30.488,7.724
30.492,8.328
30.496,7.892
30.5,7.272
30.504,7.66
30.508,8.244
30.512,7.968
30.516,7.296
30.52,7.528
30.524,8.176
30.528,8.084
30.532,7.412
30.536,7.432
30.54,8.084
30.544,8.176
30.548,7.52
30.552,7.312
30.556,7.944
30.56,8.3
30.564,7.66
30.568,7.24
30.572,7.828
30.576,8.344
30.58,7.76
30.584,7.2
30.588,7.728
30.592,8.324
30.596,7.844
30.6,7.208
30.604,7.672
30.608,8.26
30.612,7.968
30.616,7.3
30.62,7.544
30.624,8.192
30.628,8.056
30.632,7.388
30.636,7.42
30.64,8.072
30.644,8.22
30.648,7.524
30.652,7.308
30.656,7.968
30.66,8.332
30.664,7.64
30.668,7.24
30.672,7.88
30.676,8.368
30.68,7.764
30.684,7.208
30.688,7.748
30.692,8.348
30.696,7.904
30.7,7.28
30.704,7.752
30.708,8.364
30.712,8.076
30.716,7.384
30.72,7.648
30.724,8.272
30.728,8.188
30.732,7.536
30.736,7.564
30.74,8.212
30.744,8.324
30.748,7.64
30.752,7.416
30.756,8.052
30.76,8.416
30.764,7.792
30.768,7.376
30.772,7.948
30.776,8.404
30.78,7.784
30.784,7.208
30.788,7.76
30.792,8.312
30.796,7.856
30.8,7.24
30.804,7.628
30.808,8.212
30.812,7.94
30.816,7.304
30.82,7.548
30.824,8.152
30.828,8.048
30.832,7.328
30.836,7.308
30.84,7.96
30.844,8.18
30.848,7.86
30.852,8.412
30.856,9.96
30.86,11.152
30.864,10.992
30.868,10.228
30.872,10.136
30.876,9.76
30.88,8.372
30.884,7.212
30.888,7.476
30.892,7.88
30.896,7.352
30.9,6.888
30.904,7.484
30.908,8.276
30.912,8.104
30.916,7.504
30.92,7.708
30.924,8.328
30.928,8.256
30.932,7.584
30.936,7.576
30.94,8.236
30.944,8.38
30.948,7.72
30.952,7.516
30.956,8.16
30.96,8.516
30.964,7.852
30.968,7.444
30.972,8.1
30.976,8.576
30.98,8.02
30.984,7.46
30.988,8.012
30.992,8.6
30.996,8.18
31,7.556
31.004,7.996
31.008,8.596
31.012,8.34
31.016,7.724
31.02,7.952
31.024,8.6
31.028,8.516
31.032,7.872
31.036,7.928
31.04,8.592
31.044,8.728
31.048,8.116
31.052,7.948
31.056,8.62
31.06,9.008
31.064,8.376
31.068,8
31.072,8.68
31.076,9.2
31.08,8.688
31.084,8.204
31.088,8.8
31.092,9.408
31.096,9.028
31.1,8.436
31.104,8.884
31.108,9.536
31.112,9.292
31.116,8.692
31.12,8.932
31.124,9.56
31.128,9.456
31.132,8.752
31.136,8.7
31.14,9.284
31.144,9.3
31.148,8.5
31.152,8.208
31.156,8.752
31.16,8.992
31.164,8.236
31.168,7.728
31.172,8.256
31.176,8.68
31.18,8.08
31.184,7.476
31.188,7.932
31.192,8.488
31.196,8.012
31.2,7.38
31.204,7.752
31.208,8.308
31.212,8.04
31.216,7.384
31.22,7.6
31.224,8.236
31.228,8.156
31.232,7.46
31.236,7.464
31.24,8.096
31.244,8.232
31.248,7.56
31.252,7.392
31.256,7.992
31.26,8.344
31.264,7.68
31.268,7.292
31.272,7.868
31.276,8.376
31.28,7.816
31.284,7.26
31.288,7.808
31.292,8.364
31.296,7.912
31.3,7.316
31.304,7.712
31.308,8.312
31.312,8.02
31.316,7.38
31.32,7.604
31.324,8.24
31.328,8.16
31.332,7.496
31.336,7.508
31.34,8.136
31.344,8.244
31.348,7.588
31.352,7.368
31.356,8.024
31.36,8.38
31.364,7.708
31.368,7.284
31.372,7.904
31.376,8.38
31.38,7.816
31.384,7.26
31.388,7.768
31.392,8.34
31.396,7.928
31.4,7.296
31.404,7.72
31.408,8.264
31.412,7.98
31.416,7.32
31.42,7.556
31.424,8.164
31.428,8.1
31.432,7.412
31.436,7.408
31.44,8.052
31.444,8.204
31.448,7.512
31.452,7.316
31.456,7.936
31.46,8.28
31.464,7.62
31.468,7.24
31.472,7.832
31.476,8.308
31.48,7.736
31.484,7.196
31.488,7.724
31.492,8.28
31.496,7.848
31.5,7.236
31.504,7.636
31.508,8.208
31.512,7.924
31.516,7.256
31.52,7.528
31.524,8.144
31.528,8.04
31.532,7.356
31.536,7.412
31.54,8.052
31.544,8.14
31.548,7.484
31.552,7.272
31.556,7.892
31.56,8.256
31.564,7.592
31.568,7.196
31.572,7.816
31.576,8.304
31.58,7.74
31.584,7.172
31.588,7.696
31.592,8.228
31.596,7.836
31.6,7.216
31.604,7.632
31.608,8.256
31.612,7.924
31.616,7.26
31.62,7.496
31.624,8.112
31.628,8.036
31.632,7.372
31.636,7.412
31.64,8.028
31.644,8.14
31.648,7.524
31.652,7.304
31.656,7.904
31.66,8.272
31.664,7.624
31.668,7.276
31.672,7.892
31.676,8.388
31.68,7.82
31.684,7.264
31.688,7.8
31.692,8.352
31.696,7.948
31.7,7.332
31.704,7.752
31.708,8.36
31.712,8.044
31.716,7.388
31.72,7.624
31.724,8.24
31.728,8.144
31.732,7.472
31.736,7.572
31.74,8.148
31.744,8.236
31.748,7.532
31.752,7.288
31.756,7.908
31.76,8.24
31.764,7.58
31.768,7.212
31.772,7.804
31.776,8.3
31.78,7.736
31.784,7.18
31.788,7.696
31.792,8.224
31.796,7.796
31.8,7.124
31.804,7.488
31.808,8.064
31.812,7.848
31.816,7.504
31.82,8.44
31.824,9.956
31.828,10.728
31.832,10.684
31.836,10.488
31.84,10.452
31.844,9.744
31.848,8.268
31.852,7.368
31.856,7.68
31.86,7.812
31.864,7.088
31.868,6.804
31.872,7.576
31.876,8.24
31.88,7.836
31.884,7.36
31.888,7.876
31.892,8.388
31.896,7.976
31.9,7.356
31.904,7.772
31.908,8.36
31.912,8.112
31.916,7.492
31.92,7.712
31.924,8.308
31.928,8.224
31.932,7.572
31.936,7.62
31.94,8.224
31.944,8.372
31.948,7.736
31.952,7.552
31.956,8.192
31.96,8.512
31.964,7.88
31.968,7.5
31.972,8.132
31.976,8.604
31.98,8.072
31.984,7.556
31.988,8.124
31.992,8.668
31.996,8.244
32,7.648
32.004,8.088
32.008,8.692
32.012,8.444
32.016,7.852
32.02,8.12
32.024,8.768
32.028,8.708
32.032,8.064
32.036,8.128
32.04,8.82
32.044,9.008
32.048,8.388
32.052,8.26
32.056,8.928
32.06,9.3
32.064,8.74
32.068,8.356
32.072,9.032
32.076,9.524
32.08,9.036
32.084,8.528
32.088,9.064
32.092,9.66
32.096,9.224
32.1,8.54
32.104,8.876
32.108,9.388
32.112,9.032
32.116,8.276
32.12,8.408
32.124,8.912
32.128,8.748
32.132,7.956
32.136,7.896
32.14,8.44
32.144,8.508
32.148,7.788
32.152,7.532
32.156,8.12
32.16,8.42
32.164,7.736
32.168,7.32
32.172,7.908
32.176,8.368
32.18,7.78
32.184,7.248
32.188,7.756
32.192,8.32
32.196,7.9
32.2,7.244
32.204,7.636
32.208,8.248
32.212,7.952
32.216,7.292
32.22,7.548
32.224,8.148
32.228,8.08
32.232,7.396
32.236,7.416
32.24,8.076
32.244,8.176
32.248,7.532
32.252,7.328
32.256,7.972
32.26,8.3
32.264,7.68
32.268,7.244
32.272,7.856
32.276,8.336
32.28,7.768
32.284,7.22
32.288,7.756
32.292,8.328
32.296,7.904
32.3,7.272
32.304,7.668
32.308,8.256
32.312,7.98
32.316,7.336
32.32,7.572
32.324,8.204
32.328,8.136
32.332,7.468
32.336,7.468
32.34,8.084
32.344,8.172
32.348,7.548
32.352,7.324
32.356,7.944
32.36,8.288
32.364,7.628
32.368,7.216
32.372,7.86
32.376,8.308
32.38,7.732
32.384,7.168
32.388,7.732
32.392,8.284
32.396,7.844
32.4,7.216
32.404,7.628
32.408,8.208
32.412,7.908
32.416,7.248
32.42,7.508
32.424,8.116
32.428,8.036
32.432,7.352
32.436,7.384
32.44,8.004
32.444,8.14
32.448,7.488
32.452,7.276
32.456,7.908
32.46,8.244
32.464,7.592
32.468,7.2
32.472,7.776
32.476,8.284
32.48,7.72
32.484,7.144
32.488,7.7
32.492,8.264
32.496,7.856
32.5,7.18
32.504,7.62
32.508,8.22
32.512,7.924
32.516,7.256
32.52,7.512
32.524,8.124
32.528,8.072
32.532,7.38
32.536,7.396
32.54,8.032
32.544,8.144
32.548,7.496
32.552,7.292
32.556,7.952
32.56,8.284
32.564,7.632
32.568,7.188
32.572,7.788
32.576,8.276
32.58,7.756
32.584,7.196
32.588,7.728
32.592,8.284
32.596,7.876
32.6,7.232
32.604,7.672
32.608,8.256
32.612,7.996
32.616,7.388
32.62,7.6
32.624,8.22
32.628,8.148
32.632,7.484
32.636,7.552
32.64,8.184
32.644,8.312
32.648,7.648
32.652,7.424
32.656,8.028
32.66,8.344
32.664,7.736
32.668,7.328
32.672,7.94
32.676,8.432
32.68,7.844
32.684,7.232
32.688,7.732
32.692,8.24
32.696,7.864
32.7,7.188
32.704,7.584
32.708,8.176
32.712,7.908
32.716,7.248
32.72,7.48
32.724,8.116
32.728,8.044
32.732,7.348
32.736,7.356
32.74,7.98
32.744,8.06
32.748,7.38
32.752,7.208
32.756,8.048
32.76,8.96
32.764,9.244
32.768,9.596
32.772,10.912
32.776,11.38
32.78,10.128
32.784,8.708
32.788,8.46
32.792,8.352
32.796,7.72
32.8,6.86
32.804,7.128
32.808,7.732
32.812,7.612
32.816,7.12
32.82,7.504
32.824,8.22
32.828,8.22
32.832,7.536
32.836,7.556
32.84,8.188
32.844,8.324
32.848,7.66
32.852,7.448
32.856,8.092
32.86,8.416
32.864,7.8
32.868,7.4
32.872,8.016
32.876,8.496
32.88,7.96
32.884,7.424
32.888,7.948
32.892,8.524
32.896,8.096
32.9,7.464
32.904,7.924
32.908,8.516
32.912,8.288
32.916,7.62
32.92,7.868
32.924,8.476
32.928,8.42
32.932,7.78
32.936,7.82
32.94,8.48
32.944,8.632
32.948,8.028
32.952,7.816
32.956,8.484
32.96,8.848
32.964,8.264
32.968,7.876
32.972,8.512
32.976,9.02
32.98,8.556
32.984,8.028
32.988,8.62
32.992,9.24
32.996,8.868
33,8.28
33.004,8.74
33.008,9.384
33.012,9.188
33.016,8.568
33.02,8.844
33.024,9.496
33.028,9.46
33.032,8.792
33.036,8.796
33.04,9.368
33.044,9.432
33.048,8.728
33.052,8.412
33.056,8.94
33.06,9.156
33.064,8.428
33.068,7.94
33.072,8.44
33.076,8.824
33.08,8.208
33.084,7.56
33.088,8.068
33.092,8.56
33.096,8.104
33.1,7.424
33.104,7.812
33.108,8.356
33.112,8.08
33.116,7.392
33.12,7.624
33.124,8.236
33.128,8.168
33.132,7.468
33.136,7.528
33.14,8.128
33.144,8.244
33.148,7.612
33.152,7.384
33.156,8.064
33.16,8.384
33.164,7.688
33.168,7.272
33.172,7.872
33.176,8.404
33.18,7.84
33.184,7.272
33.188,7.824
33.192,8.352
33.196,7.956
33.2,7.268
33.204,7.712
33.208,8.268
33.212,8.012
33.216,7.392
33.22,7.6
33.224,8.224
33.228,8.128
33.232,7.48
33.236,7.476
33.24,8.096
33.244,8.208
33.248,7.584
33.252,7.376
33.256,7.98
33.26,8.32
33.264,7.708
33.268,7.292
33.272,7.884
33.276,8.336
33.28,7.8
33.284,7.264
33.288,7.784
33.292,8.352
33.296,7.952
33.3,7.284
33.304,7.704
33.308,8.256
33.312,8.028
33.316,7.356
33.32,7.58
33.324,8.192
33.328,8.092
33.332,7.416
33.336,7.44
33.34,8.104
33.344,8.2
33.348,7.568
33.352,7.336
33.356,7.956
33.36,8.28
33.364,7.672
33.368,7.248
33.372,7.86
33.376,8.316
33.38,7.788
33.384,7.188
33.388,7.728
33.392,8.296
33.396,7.916
33.4,7.228
33.404,7.664
33.408,8.264
33.412,7.952
33.416,7.3
33.42,7.536
33.424,8.204
33.428,8.108
33.432,7.436
33.436,7.44
33.44,8.056
33.444,8.184
33.448,7.548
33.452,7.336
33.456,7.948
33.46,8.3
33.464,7.724
33.468,7.284
33.472,7.88
33.476,8.336
33.48,7.804
33.484,7.224
33.488,7.78
33.492,8.328
33.496,7.94
33.5,7.288
33.504,7.696
33.508,8.292
33.512,8.012
33.516,7.376
33.52,7.664
33.524,8.288
33.528,8.164
33.532,7.496
33.536,7.548
33.54,8.188
33.544,8.304
33.548,7.656
33.552,7.476
33.556,8.092
33.56,8.38
33.564,7.78
33.568,7.344
33.572,7.98
33.576,8.416
33.58,7.9
33.584,7.348
33.588,7.944
33.592,8.356
33.596,7.92
33.6,7.248
33.604,7.64
33.608,8.196
33.612,7.928
33.616,7.308
33.62,7.548
33.624,8.092
33.628,8.004
33.632,7.388
33.636,7.432
33.64,8.024
33.644,8.096
33.648,7.48
33.652,7.24
33.656,7.772
33.66,8.068
33.664,7.684
33.668,7.808
33.672,9.236
33.676,10.512
33.68,10.84
33.684,10.568
33.688,10.568
33.692,10.216
33.696,8.992
33.7,7.556
33.704,7.408
33.708,7.704
33.712,7.356
33.716,6.836
33.72,7.248
33.724,7.992
33.728,8.044
33.732,7.552
33.736,7.612
33.74,8.172
33.744,8.24
33.748,7.656
33.752,7.496
33.756,8.064
33.76,8.316
33.764,7.816
33.768,7.464
33.772,8.024
33.776,8.432
33.78,7.952
33.784,7.46
33.788,7.96
33.792,8.408
33.796,8.072
33.8,7.516
33.804,7.896
33.808,8.412
33.812,8.184
33.816,7.632
33.82,7.884
33.824,8.4
33.828,8.316
33.832,7.744
33.836,7.852
33.84,8.416
33.844,8.484
33.848,7.948
33.852,7.816
33.856,8.372
33.86,8.676
33.864,8.204
33.868,7.864
33.872,8.416
33.876,8.844
33.88,8.432
33.884,7.992
33.888,8.48
33.892,9.028
33.896,8.708
33.9,8.192
33.904,8.652
33.908,9.172
33.912,9
33.916,8.476
33.92,8.752
33.924,9.328
33.928,9.26
33.932,8.736
33.936,8.792
33.94,9.352
33.944,9.42
33.948,8.832
33.952,8.628
33.956,9.128
33.96,9.264
33.964,8.656
33.968,8.184
33.972,8.604
33.976,8.876
33.98,8.308
33.984,7.78
33.988,8.216
33.992,8.56
33.996,8.14
34,7.492
34.004,7.864
34.008,8.328
34.012,8.008
34.016,7.452
34.02,7.676
34.024,8.184
34.028,8.072
34.032,7.504
34.036,7.496
34.04,8.02
34.044,8.18
34.048,7.58
34.052,7.368
34.056,8
34.06,8.22
34.064,7.656
34.068,7.292
34.072,7.836
34.076,8.224
34.08,7.788
34.084,7.308
34.088,7.748
34.092,8.244
34.096,7.872
34.1,7.284
34.104,7.66
34.108,8.168
34.112,7.912
34.116,7.344
34.12,7.612
34.124,8.152
34.128,8.028
34.132,7.464
34.136,7.484
34.14,8.064
34.144,8.12
34.148,7.568
34.152,7.416
34.156,7.976
34.16,8.228
34.164,7.676
34.168,7.316
34.172,7.876
34.176,8.26
34.18,7.772
34.184,7.276
34.188,7.824
34.192,8.28
34.196,7.888
34.2,7.3
34.204,7.7
34.208,8.176
34.212,7.9
34.216,7.352
34.22,7.596
34.224,8.104
34.228,7.976
34.232,7.416
34.236,7.46
34.24,7.984
34.244,8.1
34.248,7.516
34.252,7.332
34.256,7.904
34.26,8.192
34.264,7.656
34.268,7.292
34.272,7.836
34.276,8.204
34.28,7.732
34.284,7.252
34.288,7.752
34.292,8.228
34.296,7.876
34.3,7.284
34.304,7.668
34.308,8.16
34.312,7.904
34.316,7.34
34.32,7.648
34.324,8.112
34.328,7.976
34.332,7.404
34.336,7.448
34.34,7.984
34.344,8.052
34.348,7.508
34.352,7.364
34.356,7.876
34.36,8.116
34.364,7.616
34.368,7.284
34.372,7.784
34.376,8.164
34.38,7.696
34.384,7.244
34.388,7.724
34.392,8.136
34.396,7.792
34.4,7.236
34.404,7.652
34.408,8.14
34.412,7.868
34.416,7.296
34.42,7.532
34.424,8.072
34.428,7.98
34.432,7.468
34.436,7.548
34.44,8.08
34.444,8.14
34.448,7.576
34.452,7.432
34.456,8.036
34.46,8.272
34.464,7.728
34.468,7.388
34.472,7.904
34.476,8.304
34.48,7.792
34.484,7.312
34.488,7.824
34.492,8.3
34.496,7.96
34.5,7.392
34.504,7.54
34.508,8.184
34.512,7.872
34.516,7.328
34.52,7.544
34.524,8.1
34.528,7.98
34.532,7.436
34.536,7.452
34.54,7.98
34.544,8.064
34.548,7.512
34.552,7.34
34.556,7.888
34.56,8.128
34.564,7.532
34.568,7.148
34.572,7.724
34.576,8.244
34.58,8.148
34.584,8.532
34.588,9.88
34.592,11.14
34.596,11.2
34.6,10.268
34.604,9.904
34.608,9.464
34.612,8.328
34.616,7.148
34.62,7.116
34.624,7.52
34.628,7.392
34.632,7.052
34.636,7.276
34.64,8.008
34.644,8.192
34.648,7.652
34.652,7.46
34.656,8.024
34.66,8.256
34.664,7.78
34.668,7.388
34.672,7.936
34.676,8.368
34.68,7.872
34.684,7.396
34.688,7.932
34.692,8.4
34.696,7.976
34.7,7.448
34.704,7.844
34.708,8.352
34.712,8.084
34.716,7.564
34.72,7.78
34.724,8.356
34.728,8.216
34.732,7.684
34.736,7.732
34.74,8.296
34.744,8.432
34.748,7.844
34.752,7.66
34.756,8.236
34.76,8.548
34.764,8.048
34.768,7.64
34.772,8.268
34.776,8.712
34.78,8.228
34.784,7.752
34.788,8.292
34.792,8.844
34.796,8.48
34.8,7.948
34.804,8.388
34.808,8.968
34.812,8.768
34.816,8.22
34.82,8.516
34.824,9.136
34.828,9.06
34.832,8.524
34.836,8.6
34.84,9.236
34.844,9.372
34.848,8.8
34.852,8.652
34.856,9.24
34.86,9.496
34.864,8.936
34.868,8.456
34.872,8.976
34.876,9.304
34.88,8.712
34.884,8.096
34.888,8.54
34.892,8.908
34.896,8.428
34.9,7.76
34.904,8.084
34.908,8.612
34.912,8.236
34.916,7.592
34.92,7.8
34.924,8.332
34.928,8.22
34.932,7.568
34.936,7.568
34.94,8.16
34.944,8.232
34.948,7.624
34.952,7.44
34.956,8.04
34.96,8.328
34.964,7.76
34.968,7.316
34.972,7.888
34.976,8.336
34.98,7.828
34.984,7.336
34.988,7.844
34.992,8.344
34.996,7.904
35,7.328
35.004,7.752
35.008,8.308
35.012,7.984
35.016,7.412
35.02,7.724
35.024,8.276
35.028,8.08
35.032,7.524
35.036,7.54
35.04,8.14
35.044,8.244
35.048,7.64
35.052,7.468
35.056,8.076
35.06,8.324
35.064,7.776
35.068,7.316
35.072,7.944
35.076,8.344
35.08,7.848
35.084,7.332
35.088,7.856
35.092,8.356
35.096,7.924
35.1,7.32
35.104,7.724
35.108,8.276
35.112,7.964
35.116,7.376
35.12,7.632
35.124,8.196
35.128,8.06
35.132,7.472
35.136,7.48
35.14,8.08
35.144,8.156
35.148,7.6
35.152,7.404
35.156,8.008
35.16,8.276
35.164,7.696
35.168,7.276
35.172,7.872
35.176,8.296
35.18,7.76
35.184,7.228
35.188,7.784
35.192,8.308
35.196,7.852
35.2,7.276
35.204,7.66
35.208,8.196
35.212,7.916
35.216,7.336
35.22,7.584
35.224,8.176
35.228,8
35.232,7.412
35.236,7.464
35.24,8.06
35.244,8.14
35.248,7.5
35.252,7.38
35.256,7.976
35.26,8.208
35.264,7.704
35.268,7.26
35.272,7.844
35.276,8.244
35.28,7.732
35.284,7.232
35.288,7.78
35.292,8.264
35.296,7.836
35.3,7.248
35.304,7.66
35.308,8.216
35.312,7.888
35.316,7.324
35.32,7.596
35.324,8.192
35.328,8.008
35.332,7.452
35.336,7.484
35.34,8.152
35.344,8.196
35.348,7.612
35.352,7.42
35.356,8.036
35.36,8.332
35.364,7.784
35.368,7.404
35.372,8
35.376,8.42
35.38,7.86
35.384,7.32
35.388,7.84
35.392,8.364
35.396,7.952
35.4,7.348
35.404,7.772
35.408,8.344
35.412,8.04
35.416,7.396
35.42,7.588
35.424,8.14
35.428,7.992
35.432,7.424
35.436,7.44
35.44,8.032
35.444,8.104
35.448,7.524
35.452,7.352
35.456,7.952
35.46,8.156
35.464,7.636
35.468,7.216
35.472,7.76
35.476,8.132
35.48,7.612
35.484,7.2
35.488,7.992
35.492,9.18
35.496,9.728
35.5,9.972
35.504,10.932
35.508,11.252
35.512,10.272
35.516,8.784
35.52,8.188
35.524,8.064
35.528,7.608
35.532,6.872
35.536,6.864
35.54,7.632
35.544,7.888
35.548,7.52
35.552,7.504
35.556,8.116
35.56,8.352
35.564,7.788
35.568,7.42
35.572,8.024
35.576,8.432
35.58,7.868
35.584,7.48
35.588,7.968
35.592,8.48
35.596,8.02
35.6,7.516
35.604,7.948
35.608,8.46
35.612,8.204
35.616,7.56
35.62,7.9
35.624,8.428
35.628,8.38
35.632,7.604
35.636,7.884
35.64,8.412
35.644,8.516
35.648,7.628
35.652,7.832
35.656,8.368
35.66,8.68
35.664,7.708
35.668,7.852
35.672,8.328
35.676,8.772
35.68,7.968
35.684,7.928
35.688,8.356
35.692,8.816
35.696,8.384
35.7,8.036
35.704,8.428
35.708,8.972
35.712,8.792
35.716,8.168
35.72,8.556
35.724,9.096
35.728,9.156
35.732,8.26
35.736,8.744
35.74,9.212
35.744,9.36
35.748,8.564
35.752,8.872
35.756,9.332
35.76,9.568
35.764,8.748
35.768,8.832
35.772,9.224
35.776,9.472
35.78,8.724
35.784,8.508
35.788,8.8
35.792,9.08
35.796,8.536
35.8,8.048
35.804,8.336
35.808,8.672
35.812,8.404
35.816,7.704
35.82,8.004
35.824,8.368
35.828,8.28
35.832,7.448
35.836,7.784
35.84,8.18
35.844,8.224
35.848,7.388
35.852,7.616
35.856,8.044
35.86,8.244
35.864,7.452
35.868,7.508
35.872,7.968
35.876,8.276
35.88,7.648
35.884,7.46
35.888,7.88
35.892,8.236
35.896,7.872
35.9,7.44
35.904,7.84
35.908,8.212
35.912,8.036
35.916,7.392
35.92,7.8
35.924,8.204
35.928,8.144
35.932,7.38
35.936,7.736
35.94,8.164
35.944,8.232
35.948,7.412
35.952,7.632
35.956,8.076
35.96,8.256
35.964,7.48
35.968,7.516
35.972,7.976
35.976,8.296
35.98,7.696
35.984,7.488
35.988,7.916
35.992,8.256
35.996,7.872
36,7.396
36.004,7.808
36.008,8.264
36.012,8.064
36.016,7.272
36.02,7.684
36.024,8.168
36.028,8.112
36.032,7.224
36.036,7.584
36.04,8.072
36.044,8.18
36.048,7.272
36.052,7.46
36.056,7.968
36.06,8.208
36.064,7.392
36.068,7.384
36.072,7.864
36.076,8.256
36.08,7.64
36.084,7.32
36.088,7.784
36.092,8.24
36.096,7.872
36.1,7.3
36.104,7.764
36.108,8.236
36.112,8.004
36.116,7.26
36.12,7.712
36.124,8.18
36.128,8.132
36.132,7.256
36.136,7.624
36.14,8.08
36.144,8.184
36.148,7.32
36.152,7.528
36.156,8.008
36.16,8.228
36.164,7.464
36.168,7.408
36.172,7.916
36.176,8.264
36.18,7.696
36.184,7.364
36.188,7.848
36.192,8.248
36.196,7.9
36.2,7.3
36.204,7.744
36.208,8.196
36.212,8.016
36.216,7.224
36.22,7.7
36.224,8.188
36.228,8.104
36.232,7.24
36.236,7.616
36.24,8.092
36.244,8.2
36.248,7.356
36.252,7.604
36.256,8.088
36.26,8.284
36.264,7.54
36.268,7.496
36.272,8.004
36.276,8.34
36.28,7.8
36.284,7.436
36.288,7.916
36.292,8.4
36.296,8.028
36.3,7.324
36.304,7.8
36.308,8.356
36.312,8.168
36.316,7.288
36.32,7.712
36.324,8.216
36.328,8.112
36.332,7.172
36.336,7.536
36.34,8.096
36.344,8.156
36.348,7.244
36.352,7.396
36.356,7.98
36.36,8.256
36.364,7.472
36.368,7.296
36.372,7.864
36.376,8.22
36.38,7.6
36.384,7.072
36.388,7.68
36.392,8.448
36.396,8.644
36.4,8.832
36.404,10.148
36.408,11.408
36.412,11.132
36.416,9.556
36.42,9.14
36.424,8.944
36.428,8.204
36.432,7.008
36.436,7.164
36.44,7.564
36.444,7.696
36.448,6.98
36.452,7.264
36.456,7.996
36.46,8.396
36.464,7.624
36.468,7.468
36.472,8.036
36.476,8.44
36.48,7.888
36.484,7.376
36.488,7.956
36.492,8.484
36.496,8.096
36.5,7.372
36.504,7.928
36.508,8.492
36.512,8.252
36.516,7.376
36.52,7.872
36.524,8.44
36.528,8.392
36.532,7.456
36.536,7.824
36.54,8.428
36.544,8.524
36.548,7.644
36.552,7.768
36.556,8.376
36.56,8.676
36.564,7.928
36.568,7.736
36.572,8.34
36.576,8.784
36.58,8.248
36.584,7.76
36.588,8.36
36.592,8.852
36.596,8.564
36.6,7.812
36.604,8.412
36.608,8.976
36.612,8.764
36.616,7.936
36.62,8.468
36.624,9.08
36.628,9.048
36.632,8.16
36.636,8.588
36.64,9.22
36.644,9.344
36.648,8.524
36.652,8.664
36.656,9.288
36.66,9.6
36.664,8.872
36.668,8.66
36.672,9.256
36.676,9.632
36.68,9.036
36.684,8.368
36.688,8.88
36.692,9.288
36.696,8.8
36.7,7.896
36.704,8.408
36.708,8.86
36.712,8.508
36.716,7.568
36.72,7.98
36.724,8.524
36.728,8.364
36.732,7.384
36.736,7.708
36.74,8.276
36.744,8.336
36.748,7.424
36.752,7.488
36.756,8.08
36.76,8.364
36.764,7.6
36.768,7.348
36.772,7.944
36.776,8.392
36.78,7.844
36.784,7.24
36.788,7.848
36.792,8.356
36.796,7.996
36.8,7.168
36.804,7.812
36.808,8.356
36.812,8.092
36.816,7.184
36.82,7.696
36.824,8.28
36.828,8.172
36.832,7.208
36.836,7.616
36.84,8.216
36.844,8.26
36.848,7.412
36.852,7.492
36.856,8.064
36.86,8.348
36.864,7.616
36.868,7.34
36.872,7.996
36.876,8.424
36.88,7.88
36.884,7.236
36.888,7.908
36.892,8.42
36.896,8.008
36.9,7.152
36.904,7.808
36.908,8.356
36.912,8.116
36.916,7.168
36.92,7.712
36.924,8.3
36.928,8.176
36.932,7.192
36.936,7.58
36.94,8.168
36.944,8.26
36.948,7.396
36.952,7.432
36.956,8.064
36.96,8.292
36.964,7.616
36.968,7.276
36.972,7.924
36.976,8.364
36.98,7.824
36.984,7.168
36.988,7.804
36.992,8.348
36.996,7.932
37,7.084
37.004,7.724
37.008,8.256
37.012,8.032
37.016,7.068
37.02,7.632
37.024,8.208
37.028,8.08
37.032,7.104
37.036,7.516
37.04,8.124
37.044,8.16
37.048,7.316
37.052,7.364
37.056,8
37.06,8.256
37.064,7.536
37.068,7.232
37.072,7.908
37.076,8.312
37.08,7.8
37.084,7.128
37.088,7.8
37.092,8.32
37.096,7.924
37.1,7.068
37.104,7.732
37.108,8.292
37.112,8.02
37.116,7.052
37.12,7.668
37.124,8.212
37.128,8.088
37.132,7.124
37.136,7.512
37.14,8.148
37.144,8.236
37.148,7.44
37.152,7.44
37.156,8.072
37.16,8.328
37.164,7.632
37.168,7.3
37.172,7.964
37.176,8.44
37.18,7.88
37.184,7.196
37.188,7.88
37.192,8.396
37.196,8.008
37.2,7.1
37.204,7.804
37.208,8.388
37.212,8.12
37.216,7.096
37.22,7.64
37.224,8.188
37.228,8.044
37.232,7.08
37.236,7.464
37.24,8.068
37.244,8.124
37.248,7.292
37.252,7.32
37.256,7.96
37.26,8.212
37.264,7.552
37.268,7.136
37.272,7.808
37.276,8.196
37.28,7.656
37.284,6.98
37.288,7.892
37.292,8.908
37.296,9.416
37.3,9.396
37.304,10.852
37.308,11.588
37.312,10.792
37.316,9.004
37.32,8.752
37.324,8.48
37.328,7.848
37.332,6.7
37.336,6.964
37.34,7.66
37.344,7.88
37.348,7.304
37.352,7.46
37.356,8.176
37.36,8.46
37.364,7.776
37.368,7.356
37.372,8.06
37.376,8.512
37.38,7.984
37.384,7.24
37.388,7.992
37.392,8.564
37.396,8.132
37.4,7.24
37.404,7.956
37.408,8.524
37.412,8.232
37.416,7.26
37.42,7.888
37.424,8.436
37.428,8.344
37.432,7.44
37.436,7.784
37.44,8.388
37.444,8.456
37.448,7.708
37.452,7.68
37.456,8.34
37.46,8.64
37.464,8.032
37.468,7.62
37.472,8.34
37.476,8.804
37.48,8.312
37.484,7.58
37.488,8.376
37.492,8.92
37.496,8.552
37.5,7.664
37.504,8.444
37.508,9.036
37.512,8.78
37.516,7.856
37.52,8.52
37.524,9.144
37.528,9.072
37.532,8.196
37.536,8.6
37.54,9.252
37.544,9.356
37.548,8.624
37.552,8.612
37.556,9.324
37.56,9.596
37.564,8.996
37.568,8.544
37.572,9.24
37.576,9.6
37.58,8.996
37.584,8.124
37.588,8.82
37.592,9.22
37.596,8.708
37.6,7.648
37.604,8.336
37.608,8.804
37.612,8.404
37.616,7.352
37.62,7.908
37.624,8.448
37.628,8.264
37.632,7.3
37.636,7.596
37.64,8.216
37.644,8.28
37.648,7.46
37.652,7.292
37.656,8.036
37.66,8.332
37.664,7.656
37.668,7.104
37.672,7.908
37.676,8.388
37.68,7.82
37.684,6.968
37.688,7.812
37.692,8.36
37.696,7.928
37.7,6.9
37.704,7.744
37.708,8.328
37.712,7.968
37.716,6.976
37.72,7.64
37.724,8.236
37.728,8.128
37.732,7.168
37.736,7.52
37.74,8.192
37.744,8.2
37.748,7.444
37.752,7.32
37.756,8.084
37.76,8.344
37.764,7.7
37.768,7.156
37.772,7.976
37.776,8.452
37.78,7.88
37.784,6.984
37.788,7.836
37.792,8.456
37.796,8
37.8,6.932
37.804,7.772
37.808,8.424
37.812,8.076
37.816,6.988
37.82,7.636
37.824,8.304
37.828,8.152
37.832,7.188
37.836,7.504
37.84,8.2
37.844,8.26
37.848,7.464
37.852,7.264
37.856,8.056
37.86,8.344
37.864,7.716
37.868,7.108
37.872,7.952
37.876,8.436
37.88,7.88
37.884,6.988
37.888,7.852
37.892,8.412
37.896,7.948
37.9,6.928
37.904,7.76
37.908,8.364
37.912,8.02
37.916,7.012
37.92,7.636
37.924,8.256
37.928,8.072
37.932,7.176
37.936,7.468
37.94,8.168
37.944,8.2
37.948,7.456
37.952,7.252
37.956,8.044
37.96,8.304
37.964,7.656
37.968,7.084
37.972,7.94
37.976,8.384
37.98,7.8
37.984,6.94
37.988,7.828
37.992,8.364
37.996,7.896
38,6.904
38.004,7.74
38.008,8.34
38.012,7.968
38.016,6.976
38.02,7.616
38.024,8.22
38.028,8.044
38.032,7.168
38.036,7.448
38.04,8.132
38.044,8.224
38.048,7.508
38.052,7.344
38.056,8.136
38.06,8.364
38.064,7.748
38.068,7.144
38.072,8.028
38.076,8.492
38.08,7.936
38.084,7.072
38.088,7.948
38.092,8.464
38.096,7.996
38.1,6.984
38.104,7.848
38.108,8.392
38.112,8.096
38.116,7.132
38.12,7.724
38.124,8.308
38.128,8.076
38.132,7.18
38.136,7.448
38.14,8.108
38.144,8.144
38.148,7.46
38.152,7.248
38.156,8.016
38.16,8.284
38.164,7.652
38.168,7.052
38.172,7.908
38.176,8.332
38.18,7.728
38.184,6.804
38.188,7.704
38.192,8.304
38.196,8.036
38.2,7.64
38.204,9.416
38.208,10.824
38.212,11.2
38.216,10.236
38.22,10.168
38.224,9.948
38.228,8.956
38.232,7.376
38.236,7.196
38.24,7.692
38.244,7.62
38.248,7.036
38.252,6.98
38.256,7.98
38.26,8.372
38.264,7.828
38.268,7.216
38.272,8.108
38.276,8.54
38.28,7.964
38.284,7.068
38.288,8.028
38.292,8.568
38.296,8.112
38.3,7.084
38.304,7.976
38.308,8.536
38.312,8.204
38.316,7.272
38.32,7.864
38.324,8.488
38.328,8.308
38.332,7.544
38.336,7.736
38.34,8.432
38.344,8.488
38.348,7.812
38.352,7.6
38.356,8.396
38.36,8.684
38.364,8.108
38.368,7.46
38.372,8.396
38.376,8.8
38.38,8.288
38.384,7.416
38.388,8.4
38.392,8.928
38.396,8.48
38.4,7.544
38.404,8.412
38.408,8.976
38.412,8.656
38.416,7.812
38.42,8.44
38.424,9.092
38.428,8.936
38.432,8.248
38.436,8.46
38.44,9.22
38.444,9.272
38.448,8.68
38.452,8.452
38.456,9.3
38.46,9.588
38.464,9.028
38.468,8.412
38.472,9.344
38.476,9.724
38.48,9.144
38.484,8.152
38.488,9.028
38.492,9.444
38.496,8.86
38.5,7.812
38.504,8.524
38.508,8.94
38.512,8.512
38.516,7.556
38.52,8.04
38.524,8.568
38.528,8.34
38.532,7.58
38.536,7.656
38.54,8.308
38.544,8.272
38.548,7.648
38.552,7.348
38.556,8.124
38.56,8.368
38.564,7.744
38.568,7.084
38.572,7.996
38.576,8.424
38.58,7.856
38.584,6.968
38.588,7.9
38.592,8.404
38.596,7.948
38.6,7
38.604,7.82
38.608,8.356
38.612,8.012
38.616,7.152
38.62,7.688
38.624,8.284
38.628,8.124
38.632,7.444
38.636,7.54
38.64,8.268
38.644,8.272
38.648,7.648
38.652,7.304
38.656,8.172
38.66,8.384
38.664,7.788
38.668,7.116
38.672,8.072
38.676,8.48
38.68,7.88
38.684,6.984
38.688,7.96
38.692,8.484
38.696,7.992
38.7,7.02
38.704,7.856
38.708,8.424
38.712,8.06
38.716,7.204
38.72,7.676
38.724,8.324
38.728,8.144
38.732,7.416
38.736,7.492
38.74,8.244
38.744,8.292
38.748,7.612
38.752,7.24
38.756,8.076
38.76,8.38
38.764,7.72
38.768,6.988
38.772,7.996
38.776,8.424
38.78,7.784
38.784,6.884
38.788,7.852
38.792,8.384
38.796,7.856
38.8,6.908
38.804,7.732
38.808,8.328
38.812,7.952
38.816,7.088
38.82,7.548
38.824,8.224
38.828,8.028
38.832,7.32
38.836,7.364
38.84,8.168
38.844,8.18
38.848,7.52
38.852,7.132
38.856,8.028
38.86,8.308
38.864,7.664
38.868,6.948
38.872,7.964
38.876,8.408
38.88,7.832
38.884,6.844
38.888,7.852
38.892,8.412
38.896,7.9
38.9,6.94
38.904,7.768
38.908,8.38
38.912,7.996
38.916,7.164
38.92,7.672
38.924,8.372
38.928,8.172
38.932,7.496
38.936,7.492
38.94,8.312
38.944,8.348
38.948,7.744
38.952,7.332
38.956,8.244
38.96,8.472
38.964,7.852
38.968,7.124
38.972,8.16
38.976,8.54
38.98,7.944
38.984,7.044
38.988,8.052
38.992,8.536
38.996,7.956
39,7.06
39.004,7.784
39.008,8.316
39.012,7.956
39.016,7.224
39.02,7.596
39.024,8.26
39.028,8.04
39.032,7.404
39.036,7.392
39.04,8.188
39.044,8.152
39.048,7.524
39.052,7.132
39.056,7.992
39.06,8.124
39.064,7.528
39.068,6.972
39.072,8.348
39.076,9.504
39.08,9.784
39.084,9.732
39.088,11.08
39.092,11.06
39.096,9.724
39.1,8.092
39.104,8.072
39.108,8.32
39.112,7.768
39.116,6.788
39.12,7.036
39.124,7.824
39.128,7.788
39.132,7.304
39.136,7.412
39.14,8.316
