0,8.04
0.004,8.032
0.008,7.964
0.012,7.952
0.016,8.04
0.02,8.104
0.024,8.004
0.028,7.94
0.032,8.032
0.036,8.124
0.04,8.04
0.044,8.032
0.048,8.188
0.052,8.6
0.056,9.224
0.06,9.66
0.064,9.756
0.068,9.48
0.072,8.828
0.076,8.348
0.08,8.192
0.084,8.096
0.088,7.968
0.092,7.892
0.096,7.86
0.1,8.004
0.104,8.128
0.108,8.064
0.112,8.068
0.116,8.152
0.12,8.208
0.124,8.104
0.128,8.072
0.132,8.148
0.136,8.24
0.14,8.14
0.144,8.088
0.148,8.156
0.152,8.248
0.156,8.164
0.16,8.12
0.164,8.176
0.168,8.236
0.172,8.192
0.176,8.164
0.18,8.204
0.184,8.292
0.188,8.3
0.192,8.22
0.196,8.208
0.2,8.308
0.204,8.352
0.208,8.26
0.212,8.232
0.216,8.34
0.22,8.348
0.224,8.292
0.228,8.272
0.232,8.38
0.236,8.452
0.24,8.392
0.244,8.336
0.248,8.404
0.252,8.5
0.256,8.44
0.26,8.396
0.264,8.48
0.268,8.6
0.272,8.576
0.276,8.536
0.28,8.608
0.284,8.712
0.288,8.7
0.292,8.66
0.296,8.696
0.3,8.796
0.304,8.856
0.308,8.78
0.312,8.756
0.316,8.872
0.32,8.948
0.324,8.84
0.328,8.792
0.332,8.88
0.336,8.924
0.34,8.816
0.344,8.724
0.348,8.744
0.352,8.748
0.356,8.58
0.36,8.476
0.364,8.476
0.368,8.484
0.372,8.384
0.376,8.272
0.38,8.244
0.384,8.308
0.388,8.24
0.392,8.156
0.396,8.14
0.4,8.168
0.404,8.212
0.408,8.092
0.412,8.052
0.416,8.136
0.42,8.164
0.424,8.064
0.428,8.016
0.432,8.084
0.436,8.172
0.44,8.064
0.444,7.996
0.448,8.08
0.452,8.16
0.456,8.06
0.46,7.996
0.464,8.072
0.468,8.16
0.472,8.108
0.476,8.048
0.48,8.064
0.484,8.148
0.488,8.12
0.492,8.056
0.496,8.052
0.5,8.132
0.504,8.164
0.508,8.084
0.512,8.06
0.516,8.124
0.52,8.184
0.524,8.112
0.528,8.068
0.532,8.132
0.536,8.232
0.54,8.144
0.544,8.096
0.548,8.148
0.552,8.188
0.556,8.128
0.56,8.068
0.564,8.12
0.568,8.196
0.572,8.148
0.576,8.092
0.58,8.104
0.584,8.152
0.588,8.164
0.592,8.056
0.596,8.076
0.6,8.156
0.604,8.18
0.608,8.072
0.612,8.06
0.616,8.156
0.62,8.188
0.624,8.096
0.628,8.052
0.632,8.124
0.636,8.216
0.64,8.1
0.644,8.06
0.648,8.12
0.652,8.196
0.656,8.128
0.66,8.052
0.664,8.112
0.668,8.176
0.672,8.144
0.676,8.076
0.68,8.112
0.684,8.192
0.688,8.156
0.692,8.08
0.696,8.108
0.7,8.184
0.704,8.208
0.708,8.112
0.712,8.084
0.716,8.136
0.72,8.228
0.724,8.124
0.728,8.072
0.732,8.16
0.736,8.212
0.74,8.112
0.744,8.076
0.748,8.144
0.752,8.228
0.756,8.12
0.76,8.072
0.764,8.128
0.768,8.204
0.772,8.136
0.776,8.076
0.78,8.096
0.784,8.188
0.788,8.192
0.792,8.096
0.796,8.1
0.8,8.196
0.804,8.212
0.808,8.124
0.812,8.1
0.816,8.184
0.82,8.22
0.824,8.128
0.828,8.084
0.832,8.16
0.836,8.252
0.84,8.2
0.844,8.148
0.848,8.212
0.852,8.268
0.856,8.236
0.86,8.164
0.864,8.276
0.868,8.384
0.872,8.352
0.876,8.252
0.88,8.3
0.884,8.356
0.888,8.332
0.892,8.232
0.896,8.196
0.9,8.268
0.904,8.264
0.908,8.148
0.912,8.092
0.916,8.156
0.92,8.208
0.924,8.088
0.928,8
0.932,8.1
0.936,8.148
0.94,8.072
0.944,8.012
0.948,8.084
0.952,8.136
0.956,8.064
0.96,8.024
0.964,8.068
0.968,8.144
0.972,8.1
0.976,8.048
0.98,8.072
0.984,8.128
0.988,8.144
0.992,8.08
0.996,8.1
1,8.2
1.004,8.312
1.008,8.504
1.012,9.016
1.016,9.796
1.02,9.924
1.024,9.684
1.028,9.044
1.032,8.64
1.036,8.416
1.04,8.2
1.044,8.008
1.048,8.052
1.052,8.088
1.056,8.028
1.06,8.084
1.064,8.176
1.068,8.284
1.072,8.256
1.076,8.172
1.08,8.184
1.084,8.268
1.088,8.26
1.092,8.184
1.096,8.192
1.1,8.26
1.104,8.304
1.108,8.232
1.112,8.188
1.116,8.288
1.12,8.332
1.124,8.24
1.128,8.196
1.132,8.296
1.136,8.348
1.14,8.292
1.144,8.244
1.148,8.308
1.152,8.392
1.156,8.32
1.16,8.244
1.164,8.328
1.168,8.408
1.172,8.372
1.176,8.324
1.18,8.328
1.184,8.42
1.188,8.424
1.192,8.344
1.196,8.36
1.2,8.48
1.204,8.516
1.208,8.444
1.212,8.432
1.216,8.536
1.22,8.596
1.224,8.528
1.228,8.504
1.232,8.608
1.236,8.716
1.24,8.664
1.244,8.636
1.248,8.736
1.252,8.836
1.256,8.768
1.26,8.732
1.264,8.808
1.268,8.92
1.272,8.868
1.276,8.832
1.28,8.876
1.284,8.96
1.288,8.924
1.292,8.824
1.296,8.808
1.3,8.844
1.304,8.816
1.308,8.66
1.312,8.592
1.316,8.592
1.32,8.58
1.324,8.436
1.328,8.348
1.332,8.38
1.336,8.404
1.34,8.284
1.344,8.164
1.348,8.252
1.352,8.284
1.356,8.192
1.36,8.108
1.364,8.152
1.368,8.212
1.372,8.152
1.376,8.068
1.38,8.092
1.384,8.16
1.388,8.16
1.392,8.068
1.396,8.04
1.4,8.144
1.404,8.168
1.408,8.056
1.412,8.02
1.416,8.108
1.42,8.164
1.424,8.052
1.428,7.992
1.432,8.1
1.436,8.148
1.44,8.08
1.444,8.016
1.448,8.104
1.452,8.16
1.456,8.068
1.46,8.02
1.464,8.06
1.468,8.152
1.472,8.12
1.476,8.056
1.48,8.064
1.484,8.148
1.488,8.128
1.492,8.04
1.496,8.036
1.5,8.12
1.504,8.144
1.508,8.06
1.512,8.048
1.516,8.132
1.52,8.188
1.524,8.044
1.528,7.964
1.532,8.08
1.536,8.172
1.54,8.064
1.544,8.028
1.548,8.104
1.552,8.176
1.556,8.088
1.56,8.028
1.564,8.056
1.568,8.14
1.572,8.1
1.576,8.028
1.58,8.056
1.584,8.136
1.588,8.128
1.592,8.024
1.596,8.032
1.6,8.12
1.604,8.132
1.608,8.056
1.612,8.016
1.616,8.108
1.62,8.156
1.624,8.044
1.628,7.984
1.632,8.076
1.636,8.156
1.64,8.072
1.644,8.008
1.648,8.084
1.652,8.152
1.656,8.052
1.66,7.992
1.664,8.06
1.668,8.128
1.672,8.096
1.676,8.016
1.68,8.052
1.684,8.128
1.688,8.1
1.692,8.004
1.696,7.988
1.7,8.1
1.704,8.108
1.708,8.024
1.712,8.004
1.716,8.068
1.72,8.108
1.724,8.028
1.728,7.956
1.732,8.056
1.736,8.124
1.74,8.044
1.744,7.972
1.748,8.036
1.752,8.092
1.756,8.024
1.76,7.988
1.764,8.012
1.768,8.096
1.772,8.068
1.776,8
1.78,8.036
1.784,8.128
1.788,8.112
1.792,8.036
1.796,8.052
1.8,8.12
1.804,8.176
1.808,8.084
1.812,8.076
1.816,8.184
1.82,8.248
1.824,8.168
1.828,8.112
1.832,8.224
1.836,8.268
1.84,8.184
1.844,8.08
1.848,8.136
1.852,8.192
1.856,8.08
1.86,7.996
1.864,8.016
1.868,8.08
1.872,8.048
1.876,7.924
1.88,7.948
1.884,8.008
1.888,7.972
1.892,7.892
1.896,7.916
1.9,7.964
1.904,8
1.908,7.924
1.912,7.9
1.916,8
1.92,8.032
1.924,7.916
1.928,7.888
1.932,7.972
1.936,8.068
1.94,7.992
1.944,7.916
1.948,7.996
1.952,8.1
1.956,8.08
1.96,8.32
1.964,9.032
1.968,9.684
1.972,9.668
1.976,9.304
1.98,8.716
1.984,8.372
1.988,8.172
1.992,7.952
1.996,7.804
2,7.904
2.004,7.896
2.008,7.848
2.012,7.92
2.016,8.052
2.02,8.076
2.024,7.996
2.028,7.94
2.032,8.012
2.036,8.1
2.04,8.032
2.044,7.988
2.048,8.064
2.052,8.124
2.056,8.02
2.06,7.976
2.064,8.04
2.068,8.116
2.072,8.068
2.076,8.02
2.08,8.056
2.084,8.144
2.088,8.092
2.092,8.04
2.096,8.072
2.1,8.148
2.104,8.164
2.108,8.1
2.112,8.068
2.116,8.148
2.12,8.196
2.124,8.116
2.128,8.068
2.132,8.164
2.136,8.228
2.14,8.184
2.144,8.14
2.148,8.212
2.152,8.288
2.156,8.22
2.16,8.168
2.164,8.272
2.168,8.336
2.172,8.32
2.176,8.3
2.18,8.344
2.184,8.452
2.188,8.472
2.192,8.408
2.196,8.46
2.2,8.556
2.204,8.624
2.208,8.56
2.212,8.564
2.216,8.668
2.22,8.724
2.224,8.632
2.228,8.6
2.232,8.668
2.236,8.76
2.24,8.652
2.244,8.584
2.248,8.608
2.252,8.652
2.256,8.52
2.26,8.42
2.264,8.392
2.268,8.42
2.272,8.288
2.276,8.18
2.28,8.136
2.284,8.184
2.288,8.112
2.292,7.992
2.296,7.928
2.3,8.008
2.304,8.008
2.308,7.9
2.312,7.864
2.316,7.936
2.32,7.984
2.324,7.876
2.328,7.816
2.332,7.864
2.336,7.928
2.34,7.844
2.344,7.8
2.348,7.872
2.352,7.952
2.356,7.848
2.36,7.796
2.364,7.824
2.368,7.912
2.372,7.852
2.376,7.812
2.38,7.816
2.384,7.908
2.388,7.888
2.392,7.82
2.396,7.792
2.4,7.888
2.404,7.912
2.408,7.804
2.412,7.776
2.416,7.888
2.42,7.928
2.424,7.852
2.428,7.804
2.432,7.9
2.436,7.932
2.44,7.856
2.444,7.804
2.448,7.892
2.452,7.968
2.456,7.86
2.46,7.808
2.464,7.868
2.468,7.944
2.472,7.896
2.476,7.808
2.48,7.828
2.484,7.92
2.488,7.896
2.492,7.8
2.496,7.804
2.5,7.892
2.504,7.892
2.508,7.808
2.512,7.776
2.516,7.856
2.52,7.908
2.524,7.788
2.528,7.76
2.532,7.848
2.536,7.88
2.54,7.812
2.544,7.748
2.548,7.836
2.552,7.9
2.556,7.812
2.56,7.752
2.564,7.8
2.568,7.872
2.572,7.84
2.576,7.772
2.58,7.776
2.584,7.856
2.588,7.836
2.592,7.76
2.596,7.744
2.6,7.828
2.604,7.848
2.608,7.784
2.612,7.752
2.616,7.828
2.62,7.888
2.624,7.748
2.628,7.708
2.632,7.792
2.636,7.856
2.64,7.772
2.644,7.72
2.648,7.812
2.652,7.88
2.656,7.788
2.66,7.744
2.664,7.772
2.668,7.844
2.672,7.788
2.676,7.732
2.68,7.752
2.684,7.836
2.688,7.816
2.692,7.708
2.696,7.712
2.7,7.804
2.704,7.824
2.708,7.724
2.712,7.692
2.716,7.808
2.72,7.856
2.724,7.772
2.728,7.732
2.732,7.84
2.736,7.924
2.74,7.852
2.744,7.78
2.748,7.888
2.752,7.996
2.756,7.908
2.76,7.864
2.764,7.92
2.768,8.02
2.772,7.96
2.776,7.86
2.78,7.864
2.784,7.952
2.788,7.892
2.792,7.792
2.796,7.74
2.8,7.796
2.804,7.788
2.808,7.72
2.812,7.672
2.816,7.728
2.82,7.768
2.824,7.66
2.828,7.608
2.832,7.716
2.836,7.764
2.84,7.696
2.844,7.624
2.848,7.7
2.852,7.792
2.856,7.708
2.86,7.64
2.864,7.712
2.868,7.756
2.872,7.72
2.876,7.632
2.88,7.652
2.884,7.724
2.888,7.788
2.892,7.832
2.896,8.212
2.9,9.044
2.904,9.424
2.908,9.296
2.912,8.788
2.916,8.256
2.92,8.032
2.924,7.844
2.928,7.628
2.932,7.604
2.936,7.688
2.94,7.608
2.944,7.616
2.948,7.756
2.952,7.852
2.956,7.764
2.96,7.72
2.964,7.78
2.968,7.856
2.972,7.82
2.976,7.728
2.98,7.772
2.984,7.844
2.988,7.832
2.992,7.76
2.996,7.756
3,7.856
3.004,7.872
3.008,7.804
3.012,7.788
3.016,7.852
3.02,7.912
3.024,7.84
3.028,7.8
3.032,7.868
3.036,7.936
3.04,7.884
3.044,7.836
3.048,7.908
3.052,8.02
3.056,7.932
3.06,7.892
3.064,7.92
3.068,8.02
3.072,7.984
3.076,7.92
3.08,7.972
3.084,8.052
3.088,8.076
3.092,8.008
3.096,8.04
3.1,8.124
3.104,8.184
3.108,8.12
3.112,8.12
3.116,8.22
3.12,8.296
3.124,8.232
3.128,8.212
3.132,8.328
3.136,8.4
3.14,8.356
3.144,8.34
3.148,8.412
3.152,8.52
3.156,8.448
3.16,8.416
3.164,8.476
3.168,8.556
3.172,8.512
3.176,8.424
3.18,8.42
3.184,8.46
3.188,8.416
3.192,8.292
3.196,8.216
3.2,8.248
3.204,8.224
3.208,8.072
3.212,8.004
3.216,8.052
3.22,8.048
3.224,7.9
3.228,7.828
3.232,7.9
3.236,7.904
3.24,7.828
3.244,7.748
3.248,7.82
3.252,7.864
3.256,7.796
3.26,7.7
3.264,7.732
3.268,7.816
3.272,7.772
3.276,7.712
3.28,7.724
3.284,7.828
3.288,7.8
3.292,7.708
3.296,7.676
3.3,7.776
3.304,7.792
3.308,7.696
3.312,7.704
3.316,7.78
3.32,7.832
3.324,7.736
3.328,7.708
3.332,7.796
3.336,7.848
3.34,7.788
3.344,7.74
3.348,7.804
3.352,7.864
3.356,7.812
3.36,7.748
3.364,7.768
3.368,7.856
3.372,7.832
3.376,7.748
3.38,7.8
3.384,7.86
3.388,7.812
3.392,7.74
3.396,7.76
3.4,7.844
3.404,7.868
3.408,7.788
3.412,7.744
3.416,7.832
3.42,7.86
3.424,7.768
3.428,7.72
3.432,7.816
3.436,7.848
3.44,7.764
3.444,7.732
3.448,7.812
3.452,7.832
3.456,7.792
3.46,7.72
3.464,7.752
3.468,7.824
3.472,7.804
3.476,7.756
3.48,7.78
3.484,7.832
3.488,7.828
3.492,7.752
3.496,7.748
3.5,7.812
3.504,7.84
3.508,7.752
3.512,7.744
3.516,7.816
3.52,7.848
3.524,7.756
3.528,7.728
3.532,7.784
3.536,7.852
3.54,7.792
3.544,7.736
3.548,7.784
3.552,7.84
3.556,7.776
3.56,7.72
3.564,7.744
3.568,7.816
3.572,7.788
3.576,7.764
3.58,7.784
3.584,7.856
3.588,7.836
3.592,7.756
3.596,7.772
3.6,7.828
3.604,7.844
3.608,7.756
3.612,7.744
3.616,7.824
3.62,7.836
3.624,7.752
3.628,7.74
3.632,7.82
3.636,7.884
3.64,7.796
3.644,7.8
3.648,7.868
3.652,7.92
3.656,7.88
3.66,7.828
3.664,7.884
3.668,7.948
3.672,7.948
3.676,7.912
3.68,7.936
3.684,7.988
3.688,8.004
3.692,7.944
3.696,7.924
3.7,7.972
3.704,7.936
3.708,7.86
3.712,7.792
3.716,7.86
3.72,7.872
3.724,7.76
3.728,7.712
3.732,7.772
3.736,7.796
3.74,7.716
3.744,7.676
3.748,7.74
3.752,7.8
3.756,7.752
3.76,7.684
3.764,7.72
3.768,7.792
3.772,7.776
3.776,7.72
3.78,7.764
3.784,7.824
3.788,7.796
3.792,7.72
3.796,7.732
3.8,7.788
3.804,7.84
3.808,7.788
3.812,7.832
3.816,8.152
3.82,8.68
3.824,9.376
3.828,9.46
3.832,9.448
3.836,8.884
3.84,8.312
3.844,7.98
3.848,7.888
3.852,7.756
3.856,7.672
3.86,7.616
3.864,7.684
3.868,7.836
3.872,7.88
3.876,7.84
3.88,7.872
3.884,7.96
3.888,7.968
3.892,7.892
3.896,7.856
3.9,7.976
3.904,8.004
3.908,7.916
3.912,7.892
3.916,7.996
3.92,8.032
3.924,7.932
3.928,7.924
3.932,8.02
3.936,8.076
3.94,7.988
3.944,7.94
3.948,8.016
3.952,8.104
3.956,8.032
3.96,7.996
3.964,8.052
3.968,8.128
3.972,8.06
3.976,8.052
3.98,8.068
3.984,8.176
3.988,8.176
3.992,8.044
3.996,8.08
4,8.192
4.004,8.236
4.008,8.18
4.012,8.156
4.016,8.252
4.02,8.344
4.024,8.248
4.028,8.228
4.032,8.352
4.036,8.44
4.04,8.352
4.044,8.352
4.048,8.448
4.052,8.56
4.056,8.524
4.06,8.492
4.064,8.568
4.068,8.676
4.072,8.656
4.076,8.628
4.08,8.652
4.084,8.764
4.088,8.764
4.092,8.656
4.096,8.672
4.1,8.74
4.104,8.704
4.108,8.596
4.112,8.504
4.116,8.548
4.12,8.524
4.124,8.348
4.128,8.268
4.132,8.308
4.136,8.316
4.14,8.18
4.144,8.108
4.148,8.148
4.152,8.188
4.156,8.1
4.16,8.004
4.164,8.072
4.168,8.06
4.172,8.008
4.176,7.952
4.18,7.984
4.184,8.076
4.188,8.048
4.192,7.944
4.196,7.916
4.2,8.004
4.204,8.056
4.208,7.956
4.212,7.944
4.216,8.044
4.22,8.084
4.224,7.936
4.228,7.876
4.232,7.992
4.236,8.052
4.24,7.96
4.244,7.944
4.248,8
4.252,8.112
4.256,8.024
4.26,7.928
4.264,7.992
4.268,8.068
4.272,8.076
4.276,8
4.28,8.028
4.284,8.128
4.288,8.1
4.292,8.004
4.296,7.996
4.3,8.052
4.304,8.124
4.308,8.04
4.312,7.98
4.316,8.136
4.32,8.152
4.324,7.992
4.328,7.972
4.332,8.076
4.336,8.136
4.34,8.04
4.344,8.004
4.348,8.076
4.352,8.156
4.356,8.06
4.36,7.984
4.364,8.004
4.368,8.12
4.372,8.096
4.376,8.032
4.38,8.044
4.384,8.132
4.388,8.136
4.392,8.028
4.396,7.98
4.4,8.084
4.404,8.14
4.408,8.036
4.412,7.988
4.416,8.108
4.42,8.156
4.424,8.036
4.428,7.952
4.432,8.056
4.436,8.164
4.44,8.044
4.444,7.972
4.448,8.072
4.452,8.148
4.456,8.08
4.46,7.968
4.464,8.028
4.468,8.136
4.472,8.1
4.476,7.984
4.48,8.024
4.484,8.132
4.488,8.096
4.492,8.028
4.496,8.004
4.5,8.1
4.504,8.14
4.508,8.036
4.512,7.996
4.516,8.12
4.52,8.18
4.524,8.06
4.528,7.98
4.532,8.108
4.536,8.184
4.54,8.088
4.544,8
4.548,8.128
4.552,8.2
4.556,8.128
4.56,8.024
4.564,8.112
4.568,8.228
4.572,8.2
4.576,8.132
4.58,8.152
4.584,8.264
4.588,8.284
4.592,8.208
4.596,8.216
4.6,8.312
4.604,8.324
4.608,8.244
4.612,8.224
4.616,8.324
4.62,8.36
4.624,8.22
4.628,8.156
4.632,8.224
4.636,8.264
4.64,8.144
4.644,8.044
4.648,8.112
4.652,8.18
4.656,8.076
4.66,8.028
4.664,8.068
4.668,8.132
4.672,8.104
4.676,8.012
4.68,8.064
4.684,8.136
4.688,8.132
4.692,8.02
4.696,8.028
4.7,8.128
4.704,8.152
4.708,8.04
4.712,8.044
4.716,8.136
4.72,8.24
4.724,8.116
4.728,8.084
4.732,8.256
4.736,8.436
4.74,8.816
4.744,9.508
4.748,9.776
4.752,9.836
4.756,9.264
4.76,8.668
4.764,8.304
4.768,8.26
4.772,8.064
4.776,7.988
4.78,7.976
4.784,8.056
4.788,8.132
4.792,8.152
4.796,8.156
4.8,8.216
4.804,8.26
4.808,8.152
4.812,8.14
4.816,8.212
4.82,8.276
4.824,8.172
4.828,8.168
4.832,8.24
4.836,8.292
4.84,8.232
4.844,8.184
4.848,8.264
4.852,8.348
4.856,8.276
4.86,8.228
4.864,8.276
4.868,8.364
4.872,8.312
4.876,8.256
4.88,8.288
4.884,8.38
4.888,8.38
4.892,8.304
4.896,8.296
4.9,8.388
4.904,8.396
4.908,8.32
4.912,8.312
4.916,8.42
4.92,8.468
4.924,8.388
4.928,8.32
4.932,8.444
4.936,8.52
4.94,8.44
4.944,8.456
4.948,8.548
4.952,8.632
4.956,8.604
4.96,8.532
4.964,8.596
4.968,8.7
4.972,8.704
4.976,8.668
4.98,8.712
4.984,8.816
4.988,8.84
4.992,8.748
4.996,8.784
5,8.856
5.004,8.924
5.008,8.856
5.012,8.852
5.016,8.932
5.02,8.952
5.024,8.824
5.028,8.748
5.032,8.784
5.036,8.784
5.04,8.648
5.044,8.544
5.048,8.544
5.052,8.548
5.056,8.432
5.06,8.296
5.064,8.328
5.068,8.34
5.072,8.256
5.076,8.16
5.08,8.176
5.084,8.228
5.088,8.196
5.092,8.1
5.096,8.08
5.1,8.164
5.104,8.172
5.108,8.084
5.112,8.056
5.116,8.14
5.12,8.192
5.124,8.08
5.128,8.008
5.132,8.092
5.136,8.148
5.14,8.044
5.144,8.012
5.148,8.072
5.152,8.148
5.156,8.08
5.16,8.024
5.164,8.052
5.168,8.124
5.172,8.068
5.176,8.012
5.18,8.032
5.184,8.116
5.188,8.1
5.192,8.02
5.196,8.016
5.2,8.1
5.204,8.128
5.208,8.032
5.212,7.992
5.216,8.1
5.22,8.168
5.224,8.076
5.228,8.008
5.232,8.084
5.236,8.144
5.24,8.044
5.244,7.988
5.248,8.072
5.252,8.16
5.256,8.108
5.26,8.012
5.264,8.064
5.268,8.14
5.272,8.076
5.276,8.028
5.28,8.044
5.284,8.108
5.288,8.112
5.292,8.02
5.296,7.988
5.3,8.092
5.304,8.1
5.308,8
5.312,7.992
5.316,8.084
5.32,8.112
5.324,8.016
5.328,7.956
5.332,8.052
5.336,8.104
5.34,8.044
5.344,7.968
5.348,8.056
5.352,8.12
5.356,8.032
5.36,7.984
5.364,8.012
5.368,8.08
5.372,8.06
5.376,7.992
5.38,8.032
5.384,8.096
5.388,8.084
5.392,7.988
5.396,7.972
5.4,8.084
5.404,8.108
5.408,8.012
5.412,7.984
5.416,8.076
5.42,8.136
5.424,8.012
5.428,7.964
5.432,8.056
5.436,8.116
5.44,8.04
5.444,8.012
5.448,8.096
5.452,8.172
5.456,8.12
5.46,8.06
5.464,8.116
5.468,8.184
5.472,8.18
5.476,8.124
5.48,8.184
5.484,8.268
5.488,8.276
5.492,8.188
5.496,8.144
5.5,8.172
5.504,8.196
5.508,8.124
5.512,8.024
5.516,8.104
5.52,8.108
5.524,7.992
5.528,7.94
5.532,8
5.536,8.016
5.54,7.948
5.544,7.9
5.548,7.956
5.552,8.02
5.556,7.968
5.56,7.912
5.564,7.964
5.568,8
5.572,7.984
5.576,7.908
5.58,7.928
5.584,8.008
5.588,8.024
5.592,7.932
5.596,7.92
5.6,7.964
5.604,8.02
5.608,8
5.612,8.108
5.616,8.624
5.62,9.416
5.624,9.528
5.628,9.396
5.632,8.912
5.636,8.464
5.64,8.144
5.644,8.016
5.648,7.888
5.652,7.936
5.656,7.856
5.66,7.792
5.664,7.904
5.668,8.036
5.672,8.04
5.676,7.988
5.68,7.984
5.684,8.088
5.688,8.104
5.692,8
5.696,8
5.7,8.092
5.704,8.12
5.708,8.012
5.712,7.992
5.716,8.084
5.72,8.128
5.724,8.02
5.728,8.008
5.732,8.096
5.736,8.164
5.74,8.072
5.744,8.028
5.748,8.128
5.752,8.204
5.756,8.14
5.76,8.088
5.764,8.116
5.768,8.192
5.772,8.18
5.776,8.116
5.78,8.152
5.784,8.26
5.788,8.252
5.792,8.176
5.796,8.172
5.8,8.252
5.804,8.308
5.808,8.216
5.812,8.212
5.816,8.332
5.82,8.42
5.824,8.356
5.828,8.328
5.832,8.4
5.836,8.5
5.84,8.448
5.844,8.436
5.848,8.532
5.852,8.628
5.856,8.56
5.86,8.52
5.864,8.6
5.868,8.668
5.872,8.668
5.876,8.6
5.88,8.62
5.884,8.716
5.888,8.724
5.892,8.64
5.896,8.58
5.9,8.648
5.904,8.628
5.908,8.488
5.912,8.424
5.916,8.448
5.92,8.448
5.924,8.288
5.928,8.168
5.932,8.192
5.936,8.216
5.94,8.096
5.944,8.008
5.948,8.02
5.952,8.112
5.956,8
5.96,7.928
5.964,7.916
5.968,7.996
5.972,7.968
5.976,7.864
5.98,7.896
5.984,7.964
5.988,7.968
5.992,7.852
5.996,7.828
6,7.952
6.004,7.972
6.008,7.86
6.012,7.82
6.016,7.92
6.02,7.968
6.024,7.88
6.028,7.832
6.032,7.884
6.036,7.956
6.04,7.888
6.044,7.848
6.048,7.896
6.052,7.968
6.056,7.904
6.06,7.844
6.064,7.896
6.068,7.96
6.072,7.964
6.076,7.88
6.08,7.9
6.084,7.984
6.088,7.968
6.092,7.88
6.096,7.876
6.1,7.936
6.104,7.976
6.108,7.884
6.112,7.856
6.116,7.944
6.12,8.004
6.124,7.912
6.128,7.848
6.132,7.908
6.136,7.984
6.14,7.888
6.144,7.844
6.148,7.928
6.152,8
6.156,7.92
6.16,7.856
6.164,7.896
6.168,7.98
6.172,7.936
6.176,7.872
6.18,7.88
6.184,7.948
6.188,7.952
6.192,7.864
6.196,7.856
6.2,7.908
6.204,7.944
6.208,7.868
6.212,7.832
6.216,7.912
6.22,7.956
6.224,7.88
6.228,7.832
6.232,7.884
6.236,7.976
6.24,7.892
6.244,7.836
6.248,7.896
6.252,7.976
6.256,7.9
6.26,7.828
6.264,7.88
6.268,7.956
6.272,7.932
6.276,7.836
6.28,7.884
6.284,7.996
6.288,8.008
6.292,7.94
6.296,7.936
6.3,8.036
6.304,8.056
6.308,7.976
6.312,7.96
6.316,8.08
6.32,8.148
6.324,8.064
6.328,7.996
6.332,8.084
6.336,8.18
6.34,8.06
6.344,7.988
6.348,8.028
6.352,8.084
6.356,8.008
6.36,7.924
6.364,7.92
6.368,7.984
6.372,7.948
6.376,7.836
6.38,7.836
6.384,7.92
6.388,7.928
6.392,7.812
6.396,7.816
6.4,7.896
6.404,7.928
6.408,7.82
6.412,7.78
6.416,7.896
6.42,7.964
6.424,7.86
6.428,7.812
6.432,7.868
6.436,7.956
6.44,7.872
6.444,7.828
6.448,7.884
6.452,8.02
6.456,8.016
6.46,8.296
6.464,8.96
6.468,9.608
6.472,9.564
6.476,9.156
6.48,8.548
6.484,8.276
6.488,8.136
6.492,7.9
6.496,7.72
6.5,7.804
6.504,7.808
6.508,7.788
6.512,7.848
6.516,8
6.52,8.052
6.524,7.972
6.528,7.896
6.532,7.984
6.536,8.048
6.54,7.968
6.544,7.904
6.548,8.008
6.552,8.096
6.556,8.036
6.56,7.952
6.564,8.008
6.568,8.14
6.572,8.104
6.576,8.028
6.58,8.04
6.584,8.136
6.588,8.116
6.592,8.016
6.596,8.024
6.6,8.1
6.604,8.184
6.608,8.084
6.612,8.008
6.616,8.12
6.62,8.212
6.624,8.16
6.628,8.016
6.632,8.088
6.636,8.24
6.64,8.236
6.644,8.16
6.648,8.2
6.652,8.268
6.656,8.208
6.66,8.16
6.664,8.22
6.668,8.328
6.672,8.312
6.676,8.22
6.68,8.256
6.684,8.444
6.688,8.504
6.692,8.472
6.696,8.496
6.7,8.564
6.704,8.62
6.708,8.524
6.712,8.556
6.716,8.676
6.72,8.728
6.724,8.656
6.728,8.608
6.732,8.648
6.736,8.78
6.74,8.652
6.744,8.568
6.748,8.64
6.752,8.72
6.756,8.56
6.76,8.332
6.764,8.36
6.768,8.484
6.772,8.368
6.776,8.164
6.78,8.128
6.784,8.216
6.788,8.18
6.792,8.116
6.796,8.064
6.8,8.076
6.804,8.068
6.808,7.968
6.812,7.948
6.816,8
6.82,8.08
6.824,7.992
6.828,7.944
6.832,7.984
6.836,8
6.84,7.912
6.844,7.896
6.848,8.028
6.852,8.084
6.856,7.98
6.86,7.936
6.864,7.94
6.868,7.956
6.872,7.96
6.876,7.964
6.88,7.96
6.884,8
6.888,8.012
6.892,7.964
6.896,7.968
6.9,8.032
6.904,8.08
6.908,8.008
6.912,7.92
6.916,7.992
6.92,8.032
6.924,8.008
6.928,7.964
6.932,8.028
6.936,8.1
6.94,7.996
6.944,7.912
6.948,8.04
6.952,8.096
6.956,8.016
6.96,7.992
6.964,7.984
6.968,8.076
6.972,8.04
6.976,7.94
6.98,7.884
6.984,8.032
6.988,8.096
6.992,7.976
6.996,7.98
7,8.008
7.004,7.996
7.008,7.972
7.012,7.928
7.016,8.016
7.02,8.044
7.024,7.932
7.028,7.916
7.032,7.968
7.036,8.064
7.04,7.968
7.044,7.896
7.048,7.984
7.052,8.044
7.056,7.944
7.06,7.876
7.064,7.96
7.068,8.08
7.072,8
7.076,7.888
7.08,7.932
7.084,8.012
7.088,8.056
7.092,7.936
7.096,7.848
7.1,7.992
7.104,8.052
7.108,7.972
7.112,7.876
7.116,7.932
7.12,8.016
7.124,7.952
7.128,7.952
7.132,7.988
7.136,8.06
7.14,7.976
7.144,7.988
7.148,8.064
7.152,8.12
7.156,8.08
7.16,8.016
7.164,8.06
7.168,8.168
7.172,8.104
7.176,8.044
7.18,8.092
7.184,8.148
7.188,8.272
7.192,8.108
7.196,8.076
7.2,8.156
7.204,8.132
7.208,8.044
7.212,7.96
7.216,8.032
7.22,8.012
7.224,7.98
7.228,7.864
7.232,7.912
7.236,7.964
7.24,7.912
7.244,7.88
7.248,7.928
7.252,8
7.256,7.968
7.26,7.88
7.264,7.944
7.268,7.996
7.272,7.9
7.276,7.908
7.28,7.924
7.284,8
7.288,7.984
7.292,7.928
7.296,7.94
7.3,7.992
7.304,8.056
7.308,8.028
7.312,8.064
7.316,8.604
7.32,9.4
7.324,9.708
7.328,9.648
7.332,9.288
7.336,8.816
7.34,8.292
7.344,8.04
7.348,7.968
7.352,7.988
7.356,7.908
7.36,7.74
7.364,7.888
7.368,8.104
7.372,8.108
7.376,8.032
7.38,8.004
7.384,8.092
7.388,8.14
7.392,8.036
7.396,8.02
7.4,8.124
7.404,8.156
7.408,8.04
7.412,8.032
7.416,8.144
7.42,8.204
7.424,8.12
7.428,8.06
7.432,8.132
7.436,8.208
7.44,8.116
7.444,8.068
7.448,8.144
7.452,8.228
7.456,8.244
7.46,8.144
7.464,8.18
7.468,8.228
7.472,8.236
7.476,8.152
7.48,8.2
7.484,8.26
7.488,8.3
7.492,8.208
7.496,8.216
7.5,8.328
7.504,8.356
7.508,8.292
7.512,8.268
7.516,8.372
7.52,8.452
7.524,8.372
7.528,8.348
7.532,8.44
7.536,8.544
7.54,8.46
7.544,8.448
7.548,8.58
7.552,8.664
7.556,8.592
7.56,8.548
7.564,8.64
7.568,8.728
7.572,8.716
7.576,8.676
7.58,8.672
7.584,8.784
7.588,8.824
7.592,8.716
7.596,8.676
7.6,8.732
7.604,8.74
7.608,8.604
7.612,8.5
7.616,8.516
7.62,8.508
7.624,8.372
7.628,8.264
7.632,8.276
7.636,8.288
7.64,8.196
7.644,8.092
7.648,8.084
7.652,8.192
7.656,8.112
7.66,8.028
7.664,8.036
7.668,8.08
7.672,8.068
7.676,7.992
7.68,7.976
7.684,8.032
7.688,8.036
7.692,7.98
7.696,7.932
7.7,8.02
7.704,8.064
7.708,7.964
7.712,7.916
7.716,7.996
7.72,8.06
7.724,7.952
7.728,7.9
7.732,7.988
7.736,8.048
7.74,8.004
7.744,7.92
7.748,8.004
7.752,8.064
7.756,8.012
7.76,7.952
7.764,8
7.768,8.08
7.772,8.06
7.776,7.96
7.78,8.004
7.784,8.084
7.788,8.084
7.792,8.004
7.796,8
7.8,8.044
7.804,8.124
7.808,8
7.812,7.98
7.816,8.088
7.82,8.148
7.824,8.044
7.828,7.988
7.832,8.024
7.836,8.128
7.84,8.068
7.844,7.98
7.848,8.032
7.852,8.116
7.856,8.076
7.86,7.992
7.864,8.016
7.868,8.084
7.872,8.068
7.876,7.96
7.88,7.952
7.884,8.072
7.888,8.064
7.892,8
7.896,8
7.9,8.064
7.904,8.092
7.908,8.004
7.912,7.956
7.916,8.04
7.92,8.116
7.924,8.008
7.928,7.928
7.932,8.04
7.936,8.128
7.94,8.048
7.944,7.972
7.948,8.016
7.952,8.072
7.956,8.036
7.96,7.976
7.964,7.98
7.968,8.092
7.972,8.072
7.976,7.956
7.98,7.988
7.984,8.092
7.988,8.076
7.992,8.008
7.996,7.984
8,8.068
8.004,8.096
8.008,8.008
8.012,7.952
8.016,8.048
8.02,8.156
8.024,8.12
8.028,8.06
8.032,8.152
8.036,8.224
8.04,8.112
8.044,8.06
8.048,8.164
8.052,8.28
8.056,8.224
8.06,8.14
8.064,8.168
8.068,8.236
8.072,8.192
8.076,8.068
8.08,8.072
8.084,8.128
8.088,8.156
8.092,8.008
8.096,7.972
8.1,8.004
8.104,8.08
8.108,7.936
8.112,7.924
8.116,7.984
8.12,8.052
8.124,7.952
8.128,7.872
8.132,7.984
8.136,8.06
8.14,7.952
8.144,7.884
8.148,7.988
8.152,8.08
8.156,8.008
8.16,7.896
8.164,7.964
8.168,8.112
8.172,8.028
8.176,7.948
8.18,7.952
8.184,8.14
8.188,8.332
8.192,8.712
8.196,9.476
8.2,9.676
8.204,9.66
8.208,9.04
8.212,8.508
8.216,8.256
8.22,8.204
8.224,7.924
8.228,7.872
8.232,7.892
8.236,7.944
8.24,7.956
8.244,7.98
8.248,8.072
8.252,8.156
8.256,8.08
8.26,8.028
8.264,8.068
8.268,8.132
8.272,8.092
8.276,8.024
8.28,8.028
8.284,8.148
8.288,8.156
8.292,8.024
8.296,8.044
8.3,8.148
8.304,8.196
8.308,8.104
8.312,8.052
8.316,8.132
8.32,8.232
8.324,8.128
8.328,8.064
8.332,8.16
8.336,8.204
8.34,8.156
8.344,8.068
8.348,8.148
8.352,8.228
8.356,8.22
8.36,8.156
8.364,8.2
8.368,8.296
8.372,8.252
8.376,8.216
8.38,8.228
8.384,8.284
8.388,8.332
8.392,8.26
8.396,8.288
8.4,8.332
8.404,8.436
8.408,8.392
8.412,8.368
8.416,8.452
8.42,8.556
8.424,8.5
8.428,8.46
8.432,8.556
8.436,8.668
8.44,8.604
8.444,8.568
8.448,8.644
8.452,8.752
8.456,8.728
8.46,8.648
8.464,8.676
8.468,8.74
8.472,8.716
8.476,8.596
8.48,8.596
8.484,8.588
8.488,8.576
8.492,8.396
8.496,8.332
8.5,8.344
8.504,8.308
8.508,8.188
8.512,8.044
8.516,8.12
8.52,8.168
8.524,8.024
8.528,7.932
8.532,7.992
8.536,8.068
8.54,7.952
8.544,7.892
8.548,7.924
8.552,7.984
8.556,7.964
8.56,7.86
8.564,7.884
8.568,7.956
8.572,7.944
8.576,7.844
8.58,7.864
8.584,7.96
8.588,7.944
8.592,7.872
8.596,7.844
8.6,7.936
8.604,7.976
8.608,7.852
8.612,7.82
8.616,7.912
8.62,7.968
8.624,7.9
8.628,7.824
8.632,7.908
8.636,7.984
8.64,7.872
8.644,7.82
8.648,7.892
8.652,7.972
8.656,7.932
8.66,7.864
8.664,7.9
8.668,7.98
8.672,7.92
8.676,7.848
8.68,7.868
8.684,7.952
8.688,7.964
8.692,7.872
8.696,7.872
8.7,7.904
8.704,7.972
8.708,7.852
8.712,7.796
8.716,7.888
8.72,7.912
8.724,7.884
8.728,7.836
8.732,7.888
8.736,7.944
8.74,7.82
8.744,7.796
8.748,7.872
8.752,7.944
8.756,7.892
8.76,7.804
8.764,7.86
8.768,7.94
8.772,7.916
8.776,7.808
8.78,7.812
8.784,7.876
8.788,7.928
8.792,7.844
8.796,7.784
8.8,7.86
8.804,7.92
8.808,7.848
8.812,7.8
8.816,7.892
8.82,7.908
8.824,7.876
8.828,7.824
8.832,7.868
8.836,7.948
8.84,7.868
8.844,7.8
8.848,7.848
8.852,7.9
8.856,7.86
8.86,7.78
8.864,7.804
8.868,7.924
8.872,7.888
8.876,7.796
8.88,7.82
8.884,7.912
8.888,7.912
8.892,7.832
8.896,7.812
8.9,7.92
8.904,7.944
8.908,7.872
8.912,7.844
8.916,7.916
8.92,8.008
8.924,7.948
8.928,7.928
8.932,8.008
8.936,8.076
8.94,7.968
8.944,7.964
8.948,8.016
8.952,8.06
8.956,8.004
8.96,7.916
8.964,7.944
8.968,7.98
8.972,7.936
8.976,7.78
8.98,7.788
8.984,7.872
8.988,7.876
8.992,7.772
8.996,7.736
9,7.832
9.004,7.84
9.008,7.764
9.012,7.72
9.016,7.784
9.02,7.892
9.024,7.776
9.028,7.7
9.032,7.812
9.036,7.86
9.04,7.8
9.044,7.74
9.048,7.808
9.052,7.86
9.056,7.804
9.06,7.708
9.064,7.76
9.068,7.904
9.072,8.108
9.076,8.528
9.08,9.292
9.084,9.464
9.088,9.364
9.092,8.684
9.096,8.224
9.1,8.08
9.104,8
9.108,7.692
9.112,7.664
9.116,7.708
9.12,7.808
9.124,7.808
9.128,7.816
9.132,7.9
9.136,7.984
9.14,7.908
9.144,7.848
9.148,7.92
9.152,8.004
9.156,7.92
9.16,7.88
9.164,7.936
9.168,8.028
9.172,7.988
9.176,7.964
9.18,7.96
9.184,8.056
9.188,8.064
9.192,7.992
9.196,7.948
9.2,8.044
9.204,8.108
9.208,8.048
9.212,7.968
9.216,8.068
9.22,8.128
9.224,8.044
9.228,8.004
9.232,8.076
9.236,8.164
9.24,8.088
9.244,8.08
9.248,8.132
9.252,8.2
9.256,8.156
9.26,8.112
9.264,8.156
9.268,8.228
9.272,8.252
9.276,8.192
9.28,8.216
9.284,8.332
9.288,8.352
9.292,8.276
9.296,8.292
9.3,8.416
9.304,8.5
9.308,8.436
9.312,8.392
9.316,8.492
9.32,8.62
9.324,8.508
9.328,8.488
9.332,8.576
9.336,8.672
9.34,8.612
9.344,8.512
9.348,8.6
9.352,8.68
9.356,8.608
9.36,8.512
9.364,8.516
9.368,8.544
9.372,8.476
9.376,8.316
9.38,8.248
9.384,8.284
9.388,8.28
9.392,8.16
9.396,8.092
9.4,8.164
9.404,8.152
9.408,8.004
9.412,7.936
9.416,7.984
9.42,8.084
9.424,7.964
9.428,7.88
9.432,7.984
9.436,8.024
9.44,7.92
9.444,7.852
9.448,7.916
9.452,7.996
9.456,7.964
9.46,7.892
9.464,7.928
9.468,7.988
9.472,7.968
9.476,7.904
9.48,7.9
9.484,7.996
9.488,8.012
9.492,7.932
9.496,7.924
9.5,8.008
9.504,8.032
9.508,7.944
9.512,7.896
9.516,7.988
9.52,8.06
9.524,7.968
9.528,7.932
9.532,7.988
9.536,8.072
9.54,7.992
9.544,7.928
9.548,7.988
9.552,8.044
9.556,7.988
9.56,7.932
9.564,7.968
9.568,8.072
9.572,8.028
9.576,7.944
9.58,7.952
9.584,8.024
9.588,8.048
9.592,7.972
9.596,7.96
9.6,8.012
9.604,8.044
9.608,7.96
9.612,7.912
9.616,8
9.62,8.052
9.624,7.968
9.628,7.908
9.632,7.992
9.636,8.056
9.64,7.968
9.644,7.9
9.648,7.948
9.652,8.028
9.656,8.004
9.66,7.936
9.664,7.936
9.668,8.016
9.672,7.996
9.676,7.912
9.68,7.912
9.684,8.004
9.688,8.044
9.692,7.944
9.696,7.896
9.7,8.004
9.704,8.036
9.708,7.952
9.712,7.916
9.716,7.984
9.72,8.064
9.724,7.98
9.728,7.908
9.732,7.996
9.736,8.06
9.74,7.976
9.744,7.904
9.748,7.984
9.752,8.052
9.756,8.012
9.76,7.924
9.764,7.948
9.768,8.048
9.772,8.04
9.776,7.944
9.78,7.944
9.784,8.06
9.788,8.084
9.792,8.004
9.796,8.012
9.8,8.12
9.804,8.152
9.808,8.068
9.812,8.036
9.816,8.132
9.82,8.224
9.824,8.124
9.828,8.116
9.832,8.192
9.836,8.272
9.84,8.172
9.844,8.084
9.848,8.1
9.852,8.148
9.856,8.128
9.86,8.032
9.864,8.028
9.868,8.068
9.872,8.064
9.876,7.952
9.88,7.94
9.884,8.008
9.888,8.02
9.892,7.928
9.896,7.908
9.9,7.988
9.904,8.044
9.908,7.94
9.912,7.904
9.916,7.984
9.92,8.044
9.924,7.952
9.928,7.896
9.932,8.004
9.936,8.052
9.94,8.004
9.944,7.98
9.948,8.02
9.952,8.116
9.956,8.152
9.96,8.264
9.964,8.776
9.968,9.592
9.972,9.768
9.976,9.648
9.98,9.08
9.984,8.628
9.988,8.292
9.992,8.096
9.996,7.888
10,7.968
10.004,7.952
10.008,7.84
10.012,7.92
10.016,8.08
10.02,8.176
10.024,8.072
10.028,8.036
10.032,8.1
10.036,8.18
10.04,8.12
10.044,8.06
10.048,8.108
10.052,8.18
10.056,8.132
10.06,8.068
10.064,8.108
10.068,8.196
10.072,8.2
10.076,8.112
10.08,8.132
10.084,8.2
10.088,8.26
10.092,8.18
10.096,8.164
10.1,8.236
10.104,8.292
10.108,8.196
10.112,8.16
10.116,8.264
10.12,8.324
10.124,8.24
10.128,8.2
10.132,8.3
10.136,8.392
10.14,8.332
10.144,8.26
10.148,8.332
10.152,8.432
10.156,8.384
10.16,8.34
10.164,8.396
10.168,8.48
10.172,8.484
10.176,8.428
10.18,8.408
10.184,8.544
10.188,8.612
10.192,8.544
10.196,8.56
10.2,8.668
10.204,8.736
10.208,8.648
10.212,8.616
10.216,8.724
10.22,8.792
10.224,8.736
10.228,8.72
10.232,8.804
10.236,8.884
10.24,8.796
10.244,8.724
10.248,8.724
10.252,8.776
10.256,8.684
10.26,8.588
10.264,8.548
10.268,8.568
10.272,8.492
10.276,8.336
10.28,8.288
10.284,8.336
10.288,8.304
10.292,8.18
10.296,8.136
10.3,8.204
10.304,8.224
10.308,8.112
10.312,8.06
10.316,8.14
10.32,8.196
10.324,8.1
10.328,8.008
10.332,8.1
10.336,8.156
10.34,8.088
10.344,8.032
10.348,8.08
10.352,8.152
10.356,8.128
10.36,8.048
10.364,8.076
10.368,8.132
10.372,8.128
10.376,8.06
10.38,8.036
10.384,8.148
10.388,8.156
10.392,8.072
10.396,8.036
10.4,8.144
10.404,8.196
10.408,8.068
10.412,8.04
10.416,8.116
10.42,8.196
10.424,8.128
10.428,8.048
10.432,8.144
10.436,8.212
10.44,8.128
10.444,8.084
10.448,8.096
10.452,8.168
10.456,8.144
10.46,8.104
10.464,8.104
10.468,8.2
10.472,8.204
10.476,8.096
10.48,8.076
10.484,8.192
10.488,8.192
10.492,8.12
10.496,8.084
10.5,8.176
10.504,8.224
10.508,8.136
10.512,8.092
10.516,8.16
10.52,8.228
10.524,8.124
10.528,8.092
10.532,8.172
10.536,8.244
10.54,8.168
10.544,8.108
10.548,8.164
10.552,8.232
10.556,8.192
10.56,8.128
10.564,8.148
10.568,8.212
10.572,8.22
10.576,8.116
10.58,8.132
10.584,8.22
10.588,8.244
10.592,8.144
10.596,8.128
10.6,8.208
10.604,8.256
10.608,8.14
10.612,8.092
10.616,8.192
10.62,8.252
10.624,8.156
10.628,8.096
10.632,8.184
10.636,8.24
10.64,8.184
10.644,8.124
10.648,8.16
10.652,8.212
10.656,8.196
10.66,8.112
10.664,8.144
10.668,8.216
10.672,8.204
10.676,8.12
10.68,8.096
10.684,8.216
10.688,8.236
10.692,8.136
10.696,8.14
10.7,8.216
10.704,8.276
10.708,8.208
10.712,8.172
10.716,8.26
10.72,8.356
10.724,8.28
10.728,8.264
10.732,8.316
10.736,8.432
10.74,8.324
10.744,8.268
10.748,8.34
10.752,8.396
10.756,8.372
10.76,8.256
10.764,8.26
10.768,8.332
10.772,8.316
10.776,8.192
10.78,8.144
10.784,8.22
10.788,8.24
10.792,8.124
10.796,8.092
10.8,8.168
10.804,8.216
10.808,8.132
10.812,8.052
10.816,8.176
10.82,8.216
10.824,8.144
10.828,8.084
10.832,8.144
10.836,8.24
10.84,8.164
10.844,8.112
10.848,8.168
10.852,8.276
10.856,8.256
10.86,8.176
10.864,8.228
10.868,8.388
10.872,8.548
10.876,8.924
10.88,9.664
10.884,9.88
10.888,9.848
10.892,9.232
10.896,8.7
10.9,8.46
10.904,8.376
10.908,8.14
10.912,8.076
10.916,8.124
10.92,8.196
10.924,8.18
10.928,8.176
10.932,8.296
10.936,8.368
10.94,8.288
10.944,8.236
10.948,8.268
10.952,8.34
10.956,8.336
10.96,8.276
10.964,8.284
10.968,8.376
10.972,8.384
10.976,8.276
10.98,8.28
10.984,8.372
10.988,8.408
10.992,8.316
10.996,8.288
11,8.392
11.004,8.468
11.008,8.36
11.012,8.316
11.016,8.392
11.02,8.468
11.024,8.376
11.028,8.328
11.032,8.436
11.036,8.524
11.04,8.452
11.044,8.388
11.048,8.456
11.052,8.528
11.056,8.504
11.06,8.436
11.064,8.48
11.068,8.58
11.072,8.6
11.076,8.532
11.08,8.528
11.084,8.64
11.088,8.684
11.092,8.612
11.096,8.644
11.1,8.744
11.104,8.828
11.108,8.728
11.112,8.732
11.116,8.836
11.12,8.912
11.124,8.856
11.128,8.8
11.132,8.888
11.136,8.996
11.14,8.924
11.144,8.888
11.148,8.928
11.152,8.988
11.156,8.952
11.16,8.864
11.164,8.852
11.168,8.884
11.172,8.828
11.176,8.68
11.18,8.616
11.184,8.652
11.188,8.6
11.192,8.48
11.196,8.38
11.2,8.432
11.204,8.416
11.208,8.3
11.212,8.216
11.216,8.284
11.22,8.32
11.224,8.24
11.228,8.176
11.232,8.216
11.236,8.3
11.24,8.22
11.244,8.12
11.248,8.156
11.252,8.256
11.256,8.212
11.26,8.12
11.264,8.136
11.268,8.24
11.272,8.22
11.276,8.128
11.28,8.124
11.284,8.204
11.288,8.252
11.292,8.14
11.296,8.132
11.3,8.228
11.304,8.272
11.308,8.172
11.312,8.108
11.316,8.212
11.32,8.28
11.324,8.18
11.328,8.12
11.332,8.204
11.336,8.264
11.34,8.2
11.344,8.132
11.348,8.156
11.352,8.256
11.356,8.2
11.36,8.136
11.364,8.168
11.368,8.232
11.372,8.22
11.376,8.132
11.38,8.116
11.384,8.228
11.388,8.232
11.392,8.16
11.396,8.092
11.4,8.216
11.404,8.26
11.408,8.16
11.412,8.112
11.416,8.184
11.42,8.256
11.424,8.144
11.428,8.096
11.432,8.168
11.436,8.248
11.44,8.188
11.444,8.1
11.448,8.164
11.452,8.248
11.456,8.176
11.46,8.112
11.464,8.12
11.468,8.216
11.472,8.192
11.476,8.108
11.48,8.1
11.484,8.184
11.488,8.208
11.492,8.112
11.496,8.092
11.5,8.184
11.504,8.228
11.508,8.152
11.512,8.072
11.516,8.148
11.52,8.232
11.524,8.148
11.528,8.096
11.532,8.156
11.536,8.224
11.54,8.188
11.544,8.084
11.548,8.136
11.552,8.22
11.556,8.144
11.56,8.084
11.564,8.12
11.568,8.168
11.572,8.168
11.576,8.096
11.58,8.06
11.584,8.156
11.588,8.192
11.592,8.084
11.596,8.052
11.6,8.132
11.604,8.2
11.608,8.084
11.612,8.048
11.616,8.124
11.62,8.204
11.624,8.12
11.628,8.08
11.632,8.156
11.636,8.228
11.64,8.184
11.644,8.1
11.648,8.192
11.652,8.272
11.656,8.228
11.66,8.204
11.664,8.224
11.668,8.276
11.672,8.324
11.676,8.24
11.68,8.192
11.684,8.256
11.688,8.26
11.692,8.16
11.696,8.076
11.7,8.156
11.704,8.164
11.708,8.052
11.712,8
11.716,8.04
11.72,8.096
11.724,8.016
11.728,7.964
11.732,8.024
11.736,8.112
11.74,8.016
11.744,7.956
11.748,7.984
11.752,8.092
11.756,8.044
11.76,7.964
11.764,7.992
11.768,8.08
11.772,8.128
11.776,8.008
11.78,7.992
11.784,8.044
11.788,8.056
11.792,8.064
11.796,8.188
11.8,8.732
11.804,9.556
11.808,9.612
11.812,9.504
11.816,9.028
11.82,8.604
11.824,8.256
11.828,8.128
11.832,8.012
11.836,8.048
11.84,7.94
11.844,7.896
11.848,8.024
11.852,8.168
11.856,8.14
11.86,8.072
11.864,8.104
11.868,8.2
11.872,8.188
11.876,8.1
11.88,8.1
11.884,8.168
11.888,8.224
11.892,8.136
11.896,8.092
11.9,8.184
11.904,8.256
11.908,8.184
11.912,8.12
11.916,8.216
11.92,8.3
11.924,8.22
11.928,8.156
11.932,8.224
11.936,8.32
11.94,8.28
11.944,8.204
11.948,8.252
11.952,8.352
11.956,8.32
11.96,8.236
11.964,8.268
11.968,8.364
11.972,8.38
11.976,8.288
11.98,8.26
11.984,8.384
11.988,8.44
11.992,8.336
11.996,8.34
12,8.436
12.004,8.536
12.008,8.44
12.012,8.412
12.016,8.536
12.02,8.592
12.024,8.54
12.028,8.516
12.032,8.62
12.036,8.716
12.04,8.668
12.044,8.6
12.048,8.676
12.052,8.772
12.056,8.744
12.06,8.684
12.064,8.716
12.068,8.816
12.072,8.812
12.076,8.716
12.08,8.7
12.084,8.784
12.088,8.768
12.092,8.608
12.096,8.564
12.1,8.584
12.104,8.576
12.108,8.428
12.112,8.332
12.116,8.348
12.12,8.352
12.124,8.244
12.128,8.132
12.132,8.156
12.136,8.216
12.14,8.128
12.144,8.012
12.148,8.048
12.152,8.1
12.156,8.064
12.16,7.984
12.164,8.004
12.168,8.092
12.172,8.088
12.176,7.972
12.18,7.964
12.184,8.04
12.188,8.044
12.192,7.976
12.196,7.94
12.2,8.048
12.204,8.088
12.208,8.008
12.212,7.936
12.216,7.996
12.22,8.072
12.224,7.996
12.228,7.936
12.232,8.004
12.236,8.076
12.24,8.048
12.244,7.984
12.248,8.032
12.252,8.08
12.256,8.064
12.26,7.984
12.264,7.984
12.268,8.076
12.272,8.088
12.276,7.988
12.28,7.972
12.284,8.044
12.288,8.076
12.292,7.972
12.296,7.952
12.3,8.036
12.304,8.1
12.308,7.992
12.312,7.94
12.316,8.04
12.32,8.1
12.324,8.028
12.328,7.964
12.332,8.016
12.336,8.092
12.34,8.036
12.344,7.944
12.348,7.964
12.352,8.064
12.356,8.048
12.36,7.952
12.364,8
12.368,8.052
12.372,8.072
12.376,7.976
12.38,7.956
12.384,8.056
12.388,8.084
12.392,7.984
12.396,7.936
12.4,8.06
12.404,8.104
12.408,7.996
12.412,7.932
12.416,8.032
12.42,8.068
12.424,7.996
12.428,7.948
12.432,7.996
12.436,8.072
12.44,8.028
12.444,7.956
12.448,7.984
12.452,8.068
12.456,8.016
12.46,7.94
12.464,7.972
12.468,8.056
12.472,8.068
12.476,7.964
12.48,7.94
12.484,8.036
12.488,8.096
12.492,8.004
12.496,7.972
12.5,8.044
12.504,8.132
12.508,8.072
12.512,7.992
12.516,8.1
12.52,8.172
12.524,8.092
12.528,8.072
12.532,8.152
12.536,8.236
12.54,8.18
12.544,8.12
12.548,8.184
12.552,8.224
12.556,8.204
12.56,8.096
12.564,8.096
12.568,8.16
12.572,8.144
12.576,8.048
12.58,7.964
12.584,8.036
12.588,8.068
12.592,7.96
12.596,7.892
12.6,7.98
12.604,8.06
12.608,7.94
12.612,7.912
12.616,7.984
12.62,8.048
12.624,7.972
12.628,7.92
12.632,7.984
12.636,8.076
12.64,7.988
12.644,7.94
12.648,7.976
12.652,8.06
12.656,8.024
12.66,7.924
12.664,7.96
12.668,8.096
12.672,8.22
12.676,8.556
12.68,9.3
12.684,9.704
12.688,9.672
12.692,9.136
12.696,8.504
12.7,8.3
12.704,8.22
12.708,7.976
12.712,7.82
12.716,7.876
12.72,7.952
12.724,7.956
12.728,7.968
12.732,8.08
12.736,8.152
12.74,8.12
12.744,8.06
12.748,8.104
12.752,8.16
12.756,8.156
12.76,8.072
12.764,8.092
12.768,8.172
12.772,8.2
12.776,8.112
12.78,8.1
12.784,8.192
12.788,8.24
12.792,8.156
12.796,8.108
12.8,8.216
12.804,8.284
12.808,8.192
12.812,8.124
12.816,8.228
12.82,8.304
12.824,8.22
12.828,8.188
12.832,8.296
12.836,8.34
12.84,8.272
12.844,8.212
12.848,8.24
12.852,8.34
12.856,8.348
12.86,8.268
12.864,8.304
12.868,8.42
12.872,8.452
12.876,8.364
12.88,8.36
12.884,8.472
12.888,8.54
12.892,8.436
12.896,8.44
12.9,8.564
12.904,8.64
12.908,8.588
12.912,8.54
12.916,8.652
12.92,8.748
12.924,8.696
12.928,8.628
12.932,8.736
12.936,8.828
12.94,8.792
12.944,8.724
12.948,8.752
12.952,8.816
12.956,8.764
12.96,8.68
12.964,8.644
12.968,8.744
12.972,8.66
12.976,8.508
12.98,8.44
12.984,8.476
12.988,8.456
12.992,8.336
12.996,8.248
13,8.32
13.004,8.312
13.008,8.216
13.012,8.132
13.016,8.156
13.02,8.232
13.024,8.124
13.028,8.044
13.032,8.092
13.036,8.16
13.04,8.108
13.044,7.984
13.048,8.004
13.052,8.104
13.056,8.084
13.06,8
13.064,8
13.068,8.072
13.072,8.12
13.076,8.008
13.08,7.984
13.084,8.088
13.088,8.116
13.092,8.024
13.096,7.98
13.1,8.076
13.104,8.156
13.108,8.044
13.112,7.98
13.116,8.104
13.12,8.124
13.124,8.076
13.128,8.012
13.132,8.076
13.136,8.148
13.14,8.092
13.144,7.964
13.148,8.04
13.152,8.112
13.156,8.056
13.16,8.016
13.164,8.028
13.168,8.1
13.172,8.116
13.176,8.02
13.18,8.008
13.184,8.092
13.188,8.124
13.192,8.02
13.196,7.98
13.2,8.052
13.204,8.1
13.208,8.024
13.212,7.992
13.216,8.02
13.22,8.112
13.224,8.04
13.228,7.988
13.232,8.008
13.236,8.132
13.24,8.048
13.244,7.98
13.248,7.996
13.252,8.1
13.256,8.052
13.26,7.948
13.264,7.94
13.268,8.056
13.272,8.08
13.276,7.996
13.28,7.956
13.284,8.064
13.288,8.088
13.292,7.96
13.296,7.936
13.3,8.016
13.304,8.072
13.308,7.972
13.312,7.908
13.316,8.048
13.32,8.068
13.324,7.988
13.328,7.936
13.332,7.988
13.336,8.08
13.34,8.056
13.344,8.028
13.348,8.028
13.352,8.104
13.356,8.108
13.36,8.028
13.364,8.068
13.368,8.136
13.372,8.228
13.376,8.14
13.38,8.112
13.384,8.168
13.388,8.228
13.392,8.076
13.396,8.024
13.4,8.084
13.404,8.14
13.408,8.048
13.412,7.924
13.416,7.972
13.42,8.04
13.424,7.98
13.428,7.88
13.432,7.908
13.436,8
13.44,7.96
13.444,7.872
13.448,7.856
13.452,7.924
13.456,7.916
13.46,7.876
13.464,7.84
13.468,7.972
13.472,8.02
13.476,7.904
13.48,7.896
13.484,7.984
13.488,8.036
13.492,7.952
13.496,7.884
13.5,7.992
13.504,8.152
13.508,8.312
13.512,8.752
13.516,9.552
13.52,9.732
13.524,9.556
13.528,8.872
13.532,8.452
13.536,8.26
13.54,8.052
13.544,7.816
13.548,7.804
13.552,7.876
13.556,7.876
13.56,7.916
13.564,8
13.568,8.12
13.572,8.088
13.576,8.016
13.58,7.996
13.584,8.1
13.588,8.152
13.592,8.048
13.596,8.024
13.6,8.124
13.604,8.208
13.608,8.088
13.612,8.06
13.616,8.144
13.62,8.24
13.624,8.156
13.628,8.096
13.632,8.196
13.636,8.276
13.64,8.212
13.644,8.144
13.648,8.192
13.652,8.276
13.656,8.26
13.66,8.212
13.664,8.236
13.668,8.308
13.672,8.34
13.676,8.272
13.68,8.232
13.684,8.344
13.688,8.4
13.692,8.32
13.696,8.28
13.7,8.408
13.704,8.492
13.708,8.408
13.712,8.372
13.716,8.464
13.72,8.572
13.724,8.508
13.728,8.46
13.732,8.556
13.736,8.66
13.74,8.636
13.744,8.588
13.748,8.668
13.752,8.748
13.756,8.76
13.76,8.708
13.764,8.76
13.768,8.856
13.772,8.88
13.776,8.8
13.78,8.772
13.784,8.868
13.788,8.892
13.792,8.756
13.796,8.688
13.8,8.752
13.804,8.76
13.808,8.6
13.812,8.508
13.816,8.504
13.82,8.508
13.824,8.4
13.828,8.276
13.832,8.292
13.836,8.32
13.84,8.224
13.844,8.156
13.848,8.152
13.852,8.2
13.856,8.176
13.86,8.088
13.864,8.06
13.868,8.156
13.872,8.156
13.876,8.06
13.88,8.048
13.884,8.104
13.888,8.148
13.892,8.028
13.896,7.992
13.9,8.116
13.904,8.18
13.908,8.088
13.912,7.972
13.916,8.104
13.92,8.18
13.924,8.068
13.928,7.996
13.932,8.1
13.936,8.184
13.94,8.136
13.944,8.064
13.948,8.076
13.952,8.164
13.956,8.148
13.96,8.06
13.964,8.072
13.968,8.156
13.972,8.188
13.976,8.092
13.98,8.076
13.984,8.164
13.988,8.216
13.992,8.12
13.996,8.06
14,8.152
14.004,8.228
14.008,8.14
14.012,8.056
14.016,8.14
14.02,8.196
14.024,8.116
14.028,8.048
14.032,8.104
14.036,8.2
14.04,8.14
14.044,8.084
14.048,8.104
14.052,8.184
14.056,8.172
14.06,8.064
14.064,8.08
14.068,8.164
14.072,8.196
14.076,8.108
14.08,8.056
14.084,8.152
14.088,8.188
14.092,8.1
14.096,8.04
14.1,8.128
14.104,8.204
14.108,8.112
14.112,8.044
14.116,8.108
14.12,8.204
14.124,8.116
14.128,8.028
14.132,8.116
14.136,8.196
14.14,8.16
14.144,8.116
14.148,8.16
14.152,8.248
14.156,8.208
14.16,8.136
14.164,8.136
14.168,8.24
14.172,8.3
14.176,8.252
14.18,8.244
14.184,8.328
14.188,8.356
14.192,8.268
14.196,8.192
14.2,8.252
14.204,8.332
14.208,8.188
14.212,8.104
14.216,8.16
14.22,8.18
14.224,8.104
14.228,7.996
14.232,8.048
14.236,8.104
14.24,8.068
14.244,7.988
14.248,7.98
14.252,8.06
14.256,8.056
14.26,7.964
14.264,7.964
14.268,8.088
14.272,8.116
14.276,7.996
14.28,7.968
14.284,8.072
14.288,8.1
14.292,8.032
14.296,7.992
14.3,8.092
14.304,8.184
14.308,8.184
14.312,8.24
14.316,8.708
14.32,9.52
14.324,9.716
14.328,9.624
14.332,9.192
14.336,8.716
14.34,8.304
14.344,8.116
14.348,7.96
14.352,7.992
14.356,7.956
14.36,7.872
14.364,7.968
14.368,8.148
14.372,8.22
14.376,8.1
14.38,8.084
14.384,8.176
14.388,8.212
14.392,8.14
14.396,8.076
14.4,8.192
14.404,8.268
14.408,8.196
14.412,8.136
14.416,8.208
14.42,8.28
14.424,8.2
14.428,8.168
14.432,8.236
14.436,8.332
14.44,8.292
14.444,8.224
14.448,8.256
14.452,8.316
14.456,8.34
14.46,8.264
14.464,8.268
14.468,8.376
14.472,8.388
14.476,8.32
14.48,8.296
14.484,8.404
14.488,8.46
14.492,8.4
14.496,8.332
14.5,8.448
14.504,8.54
14.508,8.476
14.512,8.424
14.516,8.496
14.52,8.616
14.524,8.56
14.528,8.508
14.532,8.596
14.536,8.728
14.54,8.692
14.544,8.636
14.548,8.704
14.552,8.82
14.556,8.824
14.56,8.772
14.564,8.784
14.568,8.9
14.572,8.964
14.576,8.88
14.58,8.856
14.584,8.952
14.588,9.004
14.592,8.888
14.596,8.812
14.6,8.864
14.604,8.88
14.608,8.756
14.612,8.628
14.616,8.644
14.62,8.656
14.624,8.524
14.628,8.392
14.632,8.424
14.636,8.436
14.64,8.348
14.644,8.244
14.648,8.236
14.652,8.256
14.656,8.264
14.66,8.172
14.664,8.148
14.668,8.204
14.672,8.24
14.676,8.152
14.68,8.076
14.684,8.184
14.688,8.228
14.692,8.128
14.696,8.064
14.7,8.168
14.704,8.224
14.708,8.132
14.712,8.072
14.716,8.14
14.72,8.216
14.724,8.132
14.728,8.064
14.732,8.124
14.736,8.2
14.74,8.184
14.744,8.112
14.748,8.136
14.752,8.232
14.756,8.228
14.76,8.152
14.764,8.132
14.768,8.24
14.772,8.288
14.776,8.192
14.78,8.132
14.784,8.232
14.788,8.26
14.792,8.172
14.796,8.124
14.8,8.232
14.804,8.28
14.808,8.2
14.812,8.136
14.816,8.2
14.82,8.284
14.824,8.228
14.828,8.156
14.832,8.204
14.836,8.28
14.84,8.244
14.844,8.164
14.848,8.172
14.852,8.232
14.856,8.248
14.86,8.18
14.864,8.14
14.868,8.228
14.872,8.28
14.876,8.168
14.88,8.128
14.884,8.228
14.888,8.276
14.892,8.172
14.896,8.124
14.9,8.212
14.904,8.28
14.908,8.208
14.912,8.136
14.916,8.196
14.92,8.264
14.924,8.216
14.928,8.14
14.932,8.192
14.936,8.272
14.94,8.24
14.944,8.172
14.948,8.176
14.952,8.26
14.956,8.248
14.96,8.18
14.964,8.148
14.968,8.272
14.972,8.324
14.976,8.264
14.98,8.236
14.984,8.328
14.988,8.392
14.992,8.288
14.996,8.24
15,8.356
15.004,8.488
15.008,8.424
15.012,8.352
15.016,8.436
15.02,8.504
15.024,8.396
15.028,8.32
15.032,8.356
15.036,8.396
15.04,8.336
15.044,8.248
15.048,8.212
15.052,8.284
15.056,8.28
15.06,8.184
15.064,8.152
15.068,8.216
15.072,8.252
15.076,8.168
15.08,8.12
15.084,8.204
15.088,8.256
15.092,8.176
15.096,8.112
15.1,8.188
15.104,8.288
15.108,8.188
15.112,8.136
15.116,8.22
15.12,8.284
15.124,8.24
15.128,8.172
15.132,8.26
15.136,8.328
15.14,8.36
15.144,8.528
15.148,9.068
15.152,9.824
15.156,9.832
15.16,9.608
15.164,9.02
15.168,8.624
15.172,8.392
15.176,8.204
15.18,8.02
15.184,8.132
15.188,8.148
15.192,8.068
15.196,8.128
15.2,8.272
15.204,8.368
15.208,8.26
15.212,8.208
15.216,8.292
15.22,8.364
15.224,8.304
15.228,8.228
15.232,8.3
15.236,8.376
15.24,8.348
15.244,8.296
15.248,8.3
15.252,8.392
15.256,8.38
15.26,8.296
15.264,8.28
15.268,8.392
15.272,8.448
15.276,8.34
15.28,8.308
15.284,8.416
15.288,8.484
15.292,8.384
15.296,8.336
15.3,8.436
15.304,8.516
15.308,8.452
15.312,8.376
15.316,8.476
15.32,8.524
15.324,8.496
15.328,8.44
15.332,8.496
15.336,8.58
15.34,8.584
15.344,8.508
15.348,8.544
15.352,8.648
15.356,8.656
15.36,8.604
15.364,8.632
15.368,8.748
15.372,8.78
15.376,8.736
15.38,8.732
15.384,8.84
15.388,8.916
15.392,8.816
15.396,8.804
15.4,8.92
15.404,9.024
15.408,8.936
15.412,8.888
15.416,8.944
15.42,9.012
15.424,8.944
15.428,8.848
15.432,8.86
15.436,8.904
15.44,8.824
15.444,8.676
15.448,8.632
15.452,8.656
15.456,8.584
15.46,8.456
15.464,8.372
15.468,8.428
15.472,8.44
15.476,8.312
15.48,8.216
15.484,8.284
15.488,8.344
15.492,8.228
15.496,8.168
15.5,8.24
15.504,8.292
15.508,8.212
15.512,8.132
15.516,8.192
15.52,8.26
15.524,8.192
15.528,8.112
15.532,8.168
15.536,8.236
15.54,8.196
15.544,8.112
15.548,8.136
15.552,8.224
15.556,8.192
15.56,8.124
15.564,8.108
15.568,8.184
15.572,8.228
15.576,8.152
15.58,8.12
15.584,8.196
15.588,8.26
15.592,8.164
15.596,8.116
15.6,8.188
15.604,8.268
15.608,8.152
15.612,8.128
15.616,8.184
15.62,8.256
15.624,8.184
15.628,8.116
15.632,8.144
15.636,8.24
15.64,8.192
15.644,8.104
15.648,8.14
15.652,8.196
15.656,8.2
15.66,8.1
15.664,8.092
15.668,8.18
15.672,8.216
15.676,8.128
15.68,8.056
15.684,8.156
15.688,8.192
15.692,8.092
15.696,8.024
15.7,8.104
15.704,8.176
15.708,8.108
15.712,8.02
15.716,8.092
15.72,8.168
15.724,8.1
15.728,8.024
15.732,8.06
15.736,8.136
15.74,8.1
15.744,8.02
15.748,8.024
15.752,8.092
15.756,8.108
15.76,8.012
15.764,7.988
15.768,8.096
15.772,8.112
15.776,8.048
15.78,7.996
15.784,8.064
15.788,8.132
15.792,8.02
15.796,7.952
15.8,8.072
15.804,8.12
15.808,8.032
15.812,7.964
15.816,8.028
15.82,8.112
15.824,8.028
15.828,7.956
15.832,8.02
15.836,8.088
15.84,8.072
15.844,7.968
15.848,8.012
15.852,8.088
15.856,8.088
15.86,7.976
15.864,7.936
15.868,8.048
15.872,8.088
15.876,8.004
15.88,7.968
15.884,8.048
15.888,8.1
15.892,8.02
15.896,7.984
15.9,8.084
15.904,8.156
15.908,8.084
15.912,8.052
15.916,8.116
15.92,8.184
15.924,8.144
15.928,8.108
15.932,8.132
15.936,8.224
15.94,8.22
15.944,8.156
15.948,8.148
15.952,8.156
15.956,8.136
15.96,8.04
15.964,7.992
15.968,8.076
15.972,8.076
15.976,7.996
15.98,7.944
15.984,8.012
15.988,8.032
15.992,7.916
15.996,7.864
16,7.968
16.004,8.036
16.008,7.952
16.012,7.872
16.016,7.948
16.02,8.016
16.024,7.96
16.028,7.872
16.032,7.908
16.036,8.02
16.04,7.976
16.044,7.92
16.048,7.94
16.052,8.012
16.056,8
16.06,7.976
16.064,8.072
16.068,8.568
16.072,9.352
16.076,9.536
16.08,9.456
16.084,9.072
16.088,8.564
16.092,8.188
16.096,8.06
16.1,7.952
16.104,7.944
16.108,7.856
16.112,7.812
16.116,7.948
16.12,8.088
16.124,8.044
16.128,8
16.132,8.04
16.136,8.12
16.14,8.112
16.144,8.012
16.148,8.056
16.152,8.116
16.156,8.112
16.16,8.052
16.164,8.04
16.168,8.124
16.172,8.176
16.176,8.092
16.18,8.044
16.184,8.148
16.188,8.208
16.192,8.12
16.196,8.076
16.2,8.184
16.204,8.252
16.208,8.16
16.212,8.116
16.216,8.188
16.22,8.26
16.224,8.2
16.228,8.144
16.232,8.216
16.236,8.276
16.24,8.268
16.244,8.2
16.248,8.236
16.252,8.324
16.256,8.332
16.26,8.288
16.264,8.28
16.268,8.372
16.272,8.436
16.276,8.348
16.28,8.344
16.284,8.48
16.288,8.54
16.292,8.476
16.296,8.444
16.3,8.556
16.304,8.656
16.308,8.6
16.312,8.552
16.316,8.644
16.32,8.712
16.324,8.68
16.328,8.636
16.332,8.692
16.336,8.788
16.34,8.752
16.344,8.652
16.348,8.644
16.352,8.724
16.356,8.684
16.36,8.552
16.364,8.488
16.368,8.532
16.372,8.508
16.376,8.34
16.38,8.268
16.384,8.296
16.388,8.284
16.392,8.172
16.396,8.1
16.4,8.136
16.404,8.18
16.408,8.092
16.412,8.012
16.416,8.06
16.42,8.096
16.424,8.024
16.428,7.932
16.432,7.984
16.436,8.048
16.44,8.028
16.444,7.952
16.448,7.944
16.452,8.044
16.456,8.04
16.46,7.932
16.464,7.924
16.468,8.016
16.472,8.06
16.476,7.972
16.48,7.936
16.484,8.024
16.488,8.064
16.492,7.968
16.496,7.924
16.5,8.008
16.504,8.096
16.508,8.024
16.512,7.96
16.516,8.024
16.52,8.076
16.524,8.032
16.528,7.944
16.532,7.984
16.536,8.084
16.54,8.052
16.544,7.972
16.548,7.988
16.552,8.076
16.556,8.048
16.56,7.984
16.564,7.932
16.568,8.044
16.572,8.076
16.576,7.98
16.58,7.956
16.584,8.052
16.588,8.1
16.592,7.98
16.596,7.908
16.6,7.992
16.604,8.048
16.608,7.988
16.612,7.944
16.616,8.008
16.62,8.076
16.624,7.988
16.628,7.924
16.632,7.976
16.636,8.056
16.64,8.036
16.644,7.948
16.648,7.96
16.652,8.044
16.656,8.02
16.66,7.94
16.664,7.92
16.668,8
16.672,8.076
16.676,7.98
16.68,7.924
16.684,8.02
16.688,8.06
16.692,7.976
16.696,7.932
16.7,8.016
16.704,8.084
16.708,7.996
16.712,7.916
16.716,7.996
16.72,8.048
16.724,8.004
16.728,7.928
16.732,7.98
16.736,8.068
16.74,8.04
16.744,7.956
16.748,7.968
16.752,8.06
16.756,8.036
16.76,7.968
16.764,7.924
16.768,8.052
16.772,8.084
16.776,7.984
16.78,7.96
16.784,8.072
16.788,8.116
16.792,8.028
16.796,7.984
16.8,8.076
16.804,8.16
16.808,8.096
16.812,8.048
16.816,8.124
16.82,8.204
16.824,8.152
16.828,8.096
16.832,8.152
16.836,8.26
16.84,8.224
16.844,8.124
16.848,8.14
16.852,8.176
16.856,8.152
16.86,8.036
16.864,7.992
16.868,8.072
16.872,8.076
16.876,7.984
16.88,7.9
16.884,7.996
16.888,8.032
16.892,7.94
16.896,7.876
16.9,7.964
16.904,8.024
16.908,7.944
16.912,7.9
16.916,7.98
16.92,8.048
16.924,7.972
16.928,7.9
16.932,7.976
16.936,8.036
16.94,8
16.944,7.936
16.948,7.94
16.952,8.02
16.956,8.036
16.96,8.056
16.964,8.268
16.968,8.868
16.972,9.648
16.976,9.684
16.98,9.476
16.984,8.98
16.988,8.56
16.992,8.192
16.996,8.004
17,7.904
17.004,7.968
17.008,7.864
17.012,7.828
17.016,8.004
17.02,8.148
17.024,8.128
17.028,8.076
17.032,8.112
17.036,8.188
17.04,8.152
17.044,8.088
17.048,8.1
17.052,8.212
17.056,8.208
17.06,8.132
17.064,8.112
17.068,8.188
17.072,8.264
17.076,8.172
17.08,8.132
17.084,8.236
17.088,8.292
17.092,8.204
17.096,8.172
17.1,8.232
17.104,8.34
17.108,8.248
17.112,8.2
17.116,8.268
17.12,8.364
17.124,8.304
17.128,8.252
17.132,8.296
17.136,8.4
17.14,8.384
17.144,8.324
17.148,8.328
17.152,8.46
17.156,8.448
17.16,8.392
17.164,8.388
17.168,8.5
17.172,8.552
17.176,8.48
17.18,8.468
17.184,8.592
17.188,8.66
17.192,8.592
17.196,8.588
17.2,8.664
17.204,8.8
17.208,8.724
17.212,8.68
17.216,8.772
17.22,8.88
17.224,8.832
17.228,8.76
17.232,8.8
17.236,8.896
17.24,8.884
17.244,8.8
17.248,8.788
17.252,8.84
17.256,8.764
17.26,8.668
17.264,8.576
17.268,8.624
17.272,8.6
17.276,8.48
17.28,8.364
17.284,8.404
17.288,8.424
17.292,8.276
17.296,8.192
17.3,8.244
17.304,8.296
17.308,8.196
17.312,8.136
17.316,8.168
17.32,8.264
17.324,8.164
17.328,8.088
17.332,8.132
17.336,8.204
17.34,8.18
17.344,8.092
17.348,8.128
17.352,8.216
17.356,8.224
17.36,8.112
17.364,8.108
17.368,8.188
17.372,8.216
17.376,8.132
17.38,8.092
17.384,8.2
17.388,8.244
17.392,8.156
17.396,8.084
17.4,8.192
17.404,8.264
17.408,8.212
17.412,8.132
17.416,8.2
17.42,8.3
17.424,8.216
17.428,8.136
17.432,8.172
17.436,8.276
17.44,8.24
17.444,8.168
17.448,8.188
17.452,8.276
17.456,8.28
17.46,8.176
17.464,8.128
17.468,8.24
17.472,8.284
17.476,8.176
17.48,8.16
17.484,8.256
17.488,8.3
17.492,8.188
17.496,8.128
17.5,8.212
17.504,8.292
17.508,8.2
17.512,8.14
17.516,8.2
17.52,8.272
17.524,8.2
17.528,8.128
17.532,8.168
17.536,8.232
17.54,8.204
17.544,8.124
17.548,8.164
17.552,8.26
17.556,8.22
17.56,8.144
17.564,8.124
17.568,8.236
17.572,8.26
17.576,8.164
17.58,8.108
17.584,8.232
17.588,8.276
17.592,8.188
17.596,8.108
17.6,8.2
17.604,8.26
17.608,8.184
17.612,8.144
17.616,8.168
17.62,8.272
17.624,8.176
17.628,8.14
17.632,8.16
17.636,8.236
17.64,8.212
17.644,8.14
17.648,8.188
17.652,8.268
17.656,8.244
17.66,8.132
17.664,8.148
17.668,8.22
17.672,8.252
17.676,8.176
17.68,8.148
17.684,8.22
17.688,8.26
17.692,8.188
17.696,8.116
17.7,8.22
17.704,8.296
17.708,8.22
17.712,8.164
17.716,8.196
17.72,8.312
17.724,8.228
17.728,8.144
17.732,8.192
17.736,8.28
17.74,8.236
17.744,8.18
17.748,8.176
17.752,8.26
17.756,8.268
17.76,8.196
17.764,8.196
17.768,8.312
17.772,8.376
17.776,8.288
17.78,8.256
17.784,8.368
17.788,8.436
17.792,8.332
17.796,8.312
17.8,8.404
17.804,8.472
17.808,8.404
17.812,8.332
17.816,8.408
17.82,8.444
17.824,8.348
17.828,8.296
17.832,8.276
17.836,8.352
17.84,8.288
17.844,8.2
17.848,8.212
17.852,8.288
17.856,8.248
17.86,8.156
17.864,8.128
17.868,8.216
17.872,8.264
17.876,8.148
17.88,8.12
17.884,8.196
17.888,8.264
17.892,8.156
17.896,8.104
17.9,8.192
17.904,8.292
17.908,8.192
17.912,8.144
17.916,8.236
17.92,8.316
17.924,8.252
17.928,8.208
17.932,8.312
17.936,8.544
17.94,8.936
17.944,9.6
17.948,9.892
17.952,9.984
17.956,9.456
17.96,8.8
17.964,8.412
17.968,8.36
17.972,8.22
17.976,8.1
17.98,8.008
17.984,8.12
17.988,8.28
17.992,8.248
17.996,8.22
18,8.296
18.004,8.38
18.008,8.308
18.012,8.256
18.016,8.324
18.02,8.392
18.024,8.336
18.028,8.268
18.032,8.292
18.036,8.392
18.04,8.356
18.044,8.284
18.048,8.328
18.052,8.424
18.056,8.428
18.06,8.324
18.064,8.316
18.068,8.42
18.072,8.464
18.076,8.344
18.08,8.324
18.084,8.424
18.088,8.512
18.092,8.42
18.096,8.36
18.1,8.444
18.104,8.536
18.108,8.468
18.112,8.4
18.116,8.484
18.12,8.588
18.124,8.516
18.128,8.452
18.132,8.512
18.136,8.616
18.14,8.564
18.144,8.528
18.148,8.552
18.152,8.672
18.156,8.704
18.16,8.64
18.164,8.656
18.168,8.76
18.172,8.84
18.176,8.752
18.18,8.756
18.184,8.864
18.188,8.948
18.192,8.852
18.196,8.796
18.2,8.904
18.204,9.02
18.208,8.94
18.212,8.876
18.216,8.944
18.22,9.024
18.224,8.92
18.228,8.816
18.232,8.808
18.236,8.844
18.24,8.748
18.244,8.616
18.248,8.584
18.252,8.62
18.256,8.56
18.26,8.436
18.264,8.356
18.268,8.404
18.272,8.44
18.276,8.316
18.28,8.244
18.284,8.336
18.288,8.38
18.292,8.244
18.296,8.188
18.3,8.26
18.304,8.332
18.308,8.252
18.312,8.172
18.316,8.232
18.32,8.328
18.324,8.244
18.328,8.16
18.332,8.204
18.336,8.284
18.34,8.252
18.344,8.192
18.348,8.192
18.352,8.268
18.356,8.264
18.36,8.176
18.364,8.148
18.368,8.248
18.372,8.292
18.376,8.192
18.38,8.16
18.384,8.244
18.388,8.316
18.392,8.208
18.396,8.16
18.4,8.244
18.404,8.328
18.408,8.252
18.412,8.212
18.416,8.264
18.42,8.34
18.424,8.264
18.428,8.188
18.432,8.252
18.436,8.316
18.44,8.296
18.444,8.22
18.448,8.22
18.452,8.304
18.456,8.292
18.46,8.22
18.464,8.176
18.468,8.288
18.472,8.328
18.476,8.224
18.48,8.184
18.484,8.288
18.488,8.344
18.492,8.26
18.496,8.164
18.5,8.256
18.504,8.332
18.508,8.248
18.512,8.152
18.516,8.244
18.52,8.328
18.524,8.264
18.528,8.188
18.532,8.22
18.536,8.324
18.54,8.288
18.544,8.204
18.548,8.224
18.552,8.304
18.556,8.3
18.56,8.196
18.564,8.188
18.568,8.272
18.572,8.336
18.576,8.232
18.58,8.204
18.584,8.304
18.588,8.348
18.592,8.252
18.596,8.196
18.6,8.256
18.604,8.356
18.608,8.276
18.612,8.212
18.616,8.272
18.62,8.348
18.624,8.272
18.628,8.196
18.632,8.228
18.636,8.312
18.64,8.296
18.644,8.22
18.648,8.224
18.652,8.292
18.656,8.3
18.66,8.212
18.664,8.192
18.668,8.264
18.672,8.316
18.676,8.224
18.68,8.192
18.684,8.284
18.688,8.34
18.692,8.232
18.696,8.172
18.7,8.26
18.704,8.34
18.708,8.256
18.712,8.188
18.716,8.244
18.72,8.34
18.724,8.264
18.728,8.2
18.732,8.24
18.736,8.32
18.74,8.312
18.744,8.208
18.748,8.244
18.752,8.324
18.756,8.324
18.76,8.212
18.764,8.216
18.768,8.28
18.772,8.312
18.776,8.208
18.78,8.16
18.784,8.268
18.788,8.316
18.792,8.24
18.796,8.16
18.8,8.232
18.804,8.304
18.808,8.244
18.812,8.176
18.816,8.236
18.82,8.3
18.824,8.252
18.828,8.204
18.832,8.264
18.836,8.356
18.84,8.312
18.844,8.272
18.848,8.3
18.852,8.408
18.856,8.444
18.86,8.348
18.864,8.34
18.868,8.416
18.872,8.464
18.876,8.344
18.88,8.336
18.884,8.368
18.888,8.42
18.892,8.292
18.896,8.224
18.9,8.264
18.904,8.316
18.908,8.216
18.912,8.14
18.916,8.184
18.92,8.24
18.924,8.192
18.928,8.104
18.932,8.156
18.936,8.228
18.94,8.184
18.944,8.136
18.948,8.156
18.952,8.228
18.956,8.228
18.96,8.136
18.964,8.104
18.968,8.204
18.972,8.256
18.976,8.164
18.98,8.152
18.984,8.236
18.988,8.316
18.992,8.272
18.996,8.24
19,8.636
19.004,9.3
19.008,9.828
19.012,9.828
19.016,9.672
19.02,9.176
19.024,8.668
19.028,8.352
19.032,8.244
19.036,8.232
19.04,8.176
19.044,8.056
19.048,8.124
19.052,8.292
19.056,8.34
19.06,8.232
19.064,8.216
19.068,8.28
19.072,8.344
19.076,8.272
19.08,8.224
19.084,8.316
19.088,8.388
19.092,8.276
19.096,8.236
19.1,8.292
19.104,8.38
19.108,8.316
19.112,8.276
19.116,8.34
19.12,8.412
19.124,8.352
19.128,8.288
19.132,8.32
19.136,8.424
19.14,8.388
19.144,8.352
19.148,8.36
19.152,8.444
19.156,8.456
19.16,8.368
19.164,8.348
19.168,8.452
19.172,8.5
19.176,8.42
19.18,8.396
19.184,8.492
19.188,8.584
19.192,8.48
19.196,8.46
19.2,8.544
19.204,8.636
19.208,8.552
19.212,8.532
19.216,8.616
19.22,8.72
19.224,8.676
19.228,8.628
19.232,8.692
19.236,8.8
19.24,8.796
19.244,8.756
19.248,8.788
19.252,8.88
19.256,8.924
19.26,8.844
19.264,8.816
19.268,8.94
19.272,8.992
19.276,8.888
19.28,8.836
19.284,8.94
19.288,8.98
19.292,8.836
19.296,8.752
19.3,8.772
19.304,8.796
19.308,8.656
19.312,8.552
19.316,8.552
19.32,8.596
19.324,8.48
19.328,8.364
19.332,8.376
19.336,8.392
19.34,8.344
19.344,8.252
19.348,8.26
19.352,8.32
19.356,8.32
19.36,8.224
19.364,8.18
19.368,8.26
19.372,8.32
19.376,8.196
19.38,8.164
19.384,8.244
19.388,8.328
19.392,8.216
19.396,8.136
19.4,8.208
19.404,8.3
19.408,8.216
19.412,8.136
19.416,8.228
19.42,8.3
19.424,8.232
19.428,8.164
19.432,8.212
19.436,8.28
19.44,8.272
19.444,8.192
19.448,8.216
19.452,8.292
19.456,8.312
19.46,8.196
19.464,8.204
19.468,8.256
19.472,8.328
19.476,8.2
19.48,8.192
19.484,8.28
19.488,8.332
19.492,8.248
19.496,8.192
19.5,8.252
19.504,8.308
19.508,8.24
19.512,8.164
19.516,8.208
19.52,8.308
19.524,8.248
19.528,8.152
19.532,8.212
19.536,8.28
19.54,8.256
19.544,8.164
19.548,8.168
19.552,8.252
19.556,8.276
19.56,8.18
19.564,8.152
19.568,8.228
19.572,8.284
19.576,8.172
19.58,8.136
19.584,8.236
19.588,8.3
19.592,8.196
19.596,8.116
19.6,8.196
19.604,8.26
19.608,8.172
19.612,8.12
19.616,8.188
19.62,8.248
19.624,8.204
19.628,8.108
19.632,8.172
19.636,8.22
19.64,8.212
19.644,8.152
19.648,8.136
19.652,8.256
19.656,8.272
19.66,8.168
19.664,8.148
19.668,8.192
19.672,8.24
19.676,8.144
19.68,8.108
19.684,8.192
19.688,8.272
19.692,8.164
19.696,8.1
19.7,8.188
19.704,8.252
19.708,8.188
19.712,8.096
19.716,8.172
19.72,8.244
19.724,8.172
19.728,8.084
19.732,8.152
19.736,8.232
19.74,8.188
19.744,8.124
19.748,8.116
19.752,8.2
19.756,8.204
19.76,8.108
19.764,8.104
19.768,8.172
19.772,8.244
19.776,8.156
19.78,8.112
19.784,8.204
19.788,8.26
19.792,8.156
19.796,8.072
19.8,8.156
19.804,8.232
19.808,8.164
19.812,8.08
19.816,8.164
19.82,8.244
19.824,8.18
19.828,8.072
19.832,8.14
19.836,8.188
19.84,8.188
19.844,8.112
19.848,8.112
19.852,8.2
19.856,8.22
19.86,8.128
19.864,8.076
19.868,8.176
19.872,8.208
19.876,8.12
19.88,8.064
19.884,8.168
19.888,8.252
19.892,8.124
19.896,8.06
19.9,8.164
19.904,8.24
19.908,8.156
19.912,8.104
19.916,8.188
19.92,8.272
19.924,8.228
19.928,8.164
19.932,8.192
19.936,8.308
19.94,8.304
19.944,8.256
19.948,8.288
19.952,8.368
19.956,8.388
19.96,8.276
19.964,8.26
19.968,8.328
19.972,8.388
19.976,8.26
19.98,8.176
19.984,8.248
19.988,8.312
19.992,8.192
19.996,8.072
20,8.148
20.004,8.2
20.008,8.092
20.012,8.04
20.016,8.092
20.02,8.16
20.024,8.108
20.028,8.028
20.032,8.056
20.036,8.148
20.04,8.136
20.044,8.052
20.048,8.052
20.052,8.14
20.056,8.176
20.06,8.088
20.064,8.052
20.068,8.168
20.072,8.228
20.076,8.136
20.08,8.104
20.084,8.264
20.088,8.544
20.092,8.992
20.096,9.6
20.1,9.792
20.104,9.76
20.108,9.14
20.112,8.596
20.116,8.38
20.12,8.344
20.124,8.128
20.128,8.016
20.132,8.012
20.136,8.128
20.14,8.196
20.144,8.14
20.148,8.188
20.152,8.276
20.156,8.256
20.16,8.192
20.164,8.168
20.168,8.252
20.172,8.308
20.176,8.204
20.18,8.16
20.184,8.248
20.188,8.328
20.192,8.236
20.196,8.196
20.2,8.28
20.204,8.34
20.208,8.276
20.212,8.232
20.216,8.292
20.22,8.368
20.224,8.316
20.228,8.252
20.232,8.272
20.236,8.368
20.24,8.352
20.244,8.272
20.248,8.296
20.252,8.404
20.256,8.428
20.26,8.34
20.264,8.316
20.268,8.392
20.272,8.476
20.276,8.396
20.28,8.352
20.284,8.468
20.288,8.544
20.292,8.464
20.296,8.412
20.3,8.528
20.304,8.608
20.308,8.568
20.312,8.496
20.316,8.604
20.32,8.724
20.324,8.688
20.328,8.644
20.332,8.712
20.336,8.808
20.34,8.808
20.344,8.752
20.348,8.772
20.352,8.856
20.356,8.888
20.36,8.832
20.364,8.796
20.368,8.872
20.372,8.892
20.376,8.8
20.38,8.712
20.384,8.784
20.388,8.808
20.392,8.616
20.396,8.516
20.4,8.544
20.404,8.564
20.408,8.448
20.412,8.332
20.416,8.344
20.42,8.38
20.424,8.3
20.428,8.192
20.432,8.188
20.436,8.26
20.44,8.232
20.444,8.156
20.448,8.116
20.452,8.2
20.456,8.216
20.46,8.104
20.464,8.052
20.468,8.128
20.472,8.18
20.476,8.076
20.48,8.032
20.484,8.124
20.488,8.208
20.492,8.12
20.496,8.052
20.5,8.112
20.504,8.18
20.508,8.112
20.512,8.032
20.516,8.104
20.52,8.16
20.524,8.148
20.528,8.064
20.532,8.112
20.536,8.16
20.54,8.164
20.544,8.06
20.548,8.08
20.552,8.168
20.556,8.184
20.56,8.088
20.564,8.052
20.568,8.132
20.572,8.192
20.576,8.084
20.58,8.068
20.584,8.148
20.588,8.216
20.592,8.112
20.596,8.056
20.6,8.108
20.604,8.184
20.608,8.108
20.612,8.036
20.616,8.112
20.62,8.168
20.624,8.108
20.628,8.04
20.632,8.064
20.636,8.128
20.64,8.124
20.644,8.04
20.648,8.028
20.652,8.104
20.656,8.136
20.66,8.052
20.664,8.032
20.668,8.084
20.672,8.132
20.676,8.048
20.68,7.984
20.684,8.108
20.688,8.156
20.692,8.04
20.696,7.98
20.7,8.056
20.704,8.136
20.708,8.06
20.712,7.96
20.716,8.02
20.72,8.112
20.724,8.084
20.728,7.968
20.732,8.028
20.736,8.08
20.74,8.068
20.744,7.976
20.748,7.972
20.752,8.072
20.756,8.112
20.76,8.004
20.764,7.988
20.768,8.056
20.772,8.104
20.776,8.012
20.78,7.948
20.784,8.068
20.788,8.12
20.792,8.024
20.796,7.956
20.8,8.052
20.804,8.108
20.808,8.028
20.812,7.952
20.816,8.016
20.82,8.092
20.824,8.036
20.828,7.944
20.832,7.984
20.836,8.044
20.84,8.028
20.844,7.944
20.848,7.98
20.852,8.036
20.856,8.08
20.86,7.968
20.864,7.928
20.868,8.028
20.872,8.076
20.876,7.952
20.88,7.908
20.884,8.012
20.888,8.064
20.892,7.968
20.896,7.908
20.9,7.992
20.904,8.056
20.908,7.98
20.912,7.928
20.916,7.984
20.92,8.076
20.924,8.02
20.928,7.956
20.932,7.984
20.936,8.072
20.94,8.064
20.944,8.028
20.948,8.008
20.952,8.1
20.956,8.112
20.96,8.036
20.964,8.028
20.968,8.152
20.972,8.196
20.976,8.092
20.98,8.072
20.984,8.156
20.988,8.252
20.992,8.16
20.996,8.064
21,8.14
21.004,8.152
21.008,8.068
21.012,7.948
21.016,7.988
21.02,8.04
21.024,7.988
21.028,7.928
21.032,7.932
21.036,7.996
21.04,7.96
21.044,7.852
21.048,7.86
21.052,7.948
21.056,7.984
21.06,7.884
21.064,7.868
21.068,7.944
21.072,8.004
21.076,7.888
21.08,7.86
21.084,7.94
21.088,7.992
21.092,7.932
21.096,7.832
21.1,7.892
21.104,7.956
21.108,7.96
21.112,8.132
21.116,8.712
21.12,9.508
21.124,9.532
21.128,9.356
21.132,8.748
21.136,8.368
21.14,8.144
21.144,8.004
21.148,7.824
21.152,7.872
21.156,7.88
21.16,7.82
21.164,7.868
21.168,8.02
21.172,8.076
21.176,7.968
21.18,7.908
21.184,8.032
21.188,8.072
21.192,8
21.196,7.948
21.2,8.016
21.204,8.1
21.208,8.012
21.212,7.96
21.216,8.008
21.22,8.108
21.224,8.048
21.228,7.996
21.232,8.032
21.236,8.152
21.24,8.068
21.244,8.02
21.248,8.044
21.252,8.164
21.256,8.136
21.26,8.088
21.264,8.056
21.268,8.164
21.272,8.184
21.276,8.112
21.28,8.084
21.284,8.2
21.288,8.268
21.292,8.18
21.296,8.148
21.3,8.216
21.304,8.328
21.308,8.22
21.312,8.192
21.316,8.244
21.32,8.4
21.324,8.356
21.328,8.312
21.332,8.348
21.336,8.5
21.34,8.46
21.344,8.428
21.348,8.448
21.352,8.596
21.356,8.572
21.36,8.536
21.364,8.512
21.368,8.64
21.372,8.672
21.376,8.612
21.38,8.58
21.384,8.676
21.388,8.764
21.392,8.636
21.396,8.576
21.4,8.608
21.404,8.668
21.408,8.536
21.412,8.4
21.416,8.384
21.42,8.464
21.424,8.296
21.428,8.184
21.432,8.156
21.436,8.256
21.44,8.104
21.444,8.028
21.448,7.992
21.452,8.092
21.456,8.048
21.46,7.94
21.464,7.904
21.468,7.988
21.472,7.98
21.476,7.904
21.48,7.852
21.484,7.916
21.488,8.004
21.492,7.892
21.496,7.824
21.5,7.888
21.504,7.992
21.508,7.872
21.512,7.828
21.516,7.88
21.52,8.012
21.524,7.912
21.528,7.852
21.532,7.892
21.536,8.004
21.54,7.932
21.544,7.856
21.548,7.868
21.552,7.988
21.556,7.96
21.56,7.904
21.564,7.884
21.568,7.956
21.572,8.008
21.576,7.908
21.58,7.848
21.584,7.952
21.588,8.012
21.592,7.928
21.596,7.86
21.6,7.936
21.604,8.04
21.608,7.916
21.612,7.844
21.616,7.932
21.62,8.036
21.624,7.94
21.628,7.912
21.632,7.928
21.636,8.004
21.64,7.964
21.644,7.904
21.648,7.896
21.652,8.008
21.656,7.988
21.66,7.896
21.664,7.9
21.668,7.992
21.672,8.016
21.676,7.932
21.68,7.844
21.684,7.944
21.688,8.04
21.692,7.9
21.696,7.888
21.7,7.936
21.704,8.036
21.708,7.94
21.712,7.868
21.716,7.92
21.72,8.064
21.724,7.916
21.728,7.896
21.732,7.932
21.736,8.04
21.74,7.952
21.744,7.876
21.748,7.88
21.752,7.988
21.756,7.992
21.76,7.9
21.764,7.876
21.768,7.968
21.772,8.004
21.776,7.892
21.78,7.844
21.784,7.964
21.788,8.032
21.792,7.936
21.796,7.868
21.8,7.936
21.804,8.052
21.808,7.924
21.812,7.864
21.816,7.94
21.82,8.052
21.824,7.944
21.828,7.876
21.832,7.924
21.836,8.04
21.84,7.964
21.844,7.888
21.848,7.9
21.852,7.98
21.856,8.008
21.86,7.908
21.864,7.88
21.868,7.956
21.872,7.988
21.876,7.904
21.88,7.84
21.884,7.936
21.888,8.044
21.892,7.936
21.896,7.924
21.9,8.008
21.904,8.112
21.908,8.004
21.912,7.968
21.916,8.004
21.92,8.176
21.924,8.084
21.928,8.06
21.932,8.092
21.936,8.204
21.94,8.16
21.944,8.072
21.948,8.04
21.952,8.116
21.956,8.108
21.96,7.98
21.964,7.92
21.968,7.972
21.972,8.02
21.976,7.876
21.98,7.844
21.984,7.896
21.988,8.004
21.992,7.876
21.996,7.832
22,7.88
22.004,8.004
22.008,7.868
22.012,7.828
22.016,7.864
22.02,8.008
22.024,7.892
22.028,7.852
22.032,7.88
22.036,7.984
22.04,7.936
22.044,7.88
22.048,7.876
22.052,7.96
22.056,8.008
22.06,7.976
22.064,8.208
22.068,8.844
22.072,9.628
22.076,9.608
22.08,9.432
22.084,8.868
22.088,8.508
22.092,8.108
22.096,7.96
22.1,7.832
22.104,7.952
22.108,7.78
22.112,7.768
22.116,7.928
22.12,8.104
22.124,8.02
22.128,7.96
22.132,7.992
22.136,8.104
22.14,8.06
22.144,7.984
22.148,8
22.152,8.076
22.156,8.112
22.16,8.016
22.164,7.996
22.168,8.108
22.172,8.164
22.176,8.06
22.18,8.02
22.184,8.124
22.188,8.224
22.192,8.096
22.196,8.072
22.2,8.148
22.204,8.24
22.208,8.12
22.212,8.092
22.216,8.128
22.22,8.284
22.224,8.192
22.228,8.136
22.232,8.168
22.236,8.272
22.24,8.248
22.244,8.188
22.248,8.184
22.252,8.276
22.256,8.324
22.26,8.244
22.264,8.244
22.268,8.34
22.272,8.428
22.276,8.324
22.28,8.316
22.284,8.436
22.288,8.548
22.292,8.472
22.296,8.452
22.3,8.56
22.304,8.688
22.308,8.604
22.312,8.572
22.316,8.644
22.32,8.784
22.324,8.704
22.328,8.644
22.332,8.716
22.336,8.812
22.34,8.776
22.344,8.72
22.348,8.672
22.352,8.736
22.356,8.7
22.36,8.576
22.364,8.496
22.368,8.524
22.372,8.536
22.376,8.34
22.38,8.256
22.384,8.276
22.388,8.332
22.392,8.192
22.396,8.096
22.4,8.128
22.404,8.236
22.408,8.08
22.412,8.004
22.416,8.048
22.42,8.136
22.424,8.036
22.428,7.972
22.432,7.988
22.436,8.092
22.44,8.056
22.444,7.972
22.448,7.96
22.452,8.036
22.456,8.056
22.46,7.956
22.464,7.952
22.468,8.024
22.472,8.1
22.476,7.98
22.48,7.928
22.484,7.992
22.488,8.1
22.492,7.964
22.496,7.936
22.5,8.028
22.504,8.14
22.508,7.996
22.512,7.964
22.516,8.036
22.52,8.14
22.524,8.04
22.528,7.988
22.532,8.02
22.536,8.128
22.54,8.06
22.544,7.988
22.548,8.012
22.552,8.088
22.556,8.108
22.56,8.02
22.564,8
22.568,8.056
22.572,8.136
22.576,8.028
22.58,7.968
22.584,8.056
22.588,8.132
22.592,8
22.596,7.964
22.6,8.044
22.604,8.16
22.608,8.02
22.612,7.996
22.616,8.036
22.62,8.14
22.624,8.04
22.628,8.004
22.632,8.048
22.636,8.128
22.64,8.068
22.644,8.004
22.648,8.004
22.652,8.08
22.656,8.096
22.66,8.02
22.664,8.004
22.668,8.092
22.672,8.156
22.676,8.012
22.68,7.976
22.684,8.036
22.688,8.168
22.692,8.028
22.696,7.98
22.7,8.072
22.704,8.184
22.708,8.048
22.712,8.004
22.716,8.048
22.72,8.14
22.724,8.068
22.728,8.02
22.732,8.048
22.736,8.14
22.74,8.108
22.744,8.024
22.748,8.02
22.752,8.104
22.756,8.132
22.76,8.044
22.764,8.016
22.768,8.1
22.772,8.172
22.776,8.012
22.78,8
22.784,8.092
22.788,8.212
22.792,8.068
22.796,8
22.8,8.084
22.804,8.196
22.808,8.072
22.812,7.984
22.816,8.04
22.82,8.14
22.824,8.072
22.828,8.024
22.832,8.04
22.836,8.136
22.84,8.112
22.844,8.032
22.848,8.028
22.852,8.116
22.856,8.176
22.86,8.1
22.864,8.088
22.868,8.156
22.872,8.248
22.876,8.14
22.88,8.112
22.884,8.228
22.888,8.348
22.892,8.208
22.896,8.176
22.9,8.252
22.904,8.372
22.908,8.2
22.912,8.144
22.916,8.18
22.92,8.268
22.924,8.156
22.928,8.084
22.932,8.072
22.936,8.156
22.94,8.108
22.944,8.016
22.948,7.972
22.952,8.064
22.956,8.088
22.96,7.984
22.964,7.984
22.968,8.06
22.972,8.136
22.976,8.016
22.98,7.96
22.984,8.04
22.988,8.164
22.992,8.024
22.996,7.992
23,8.048
23.004,8.192
23.008,8.072
23.012,8.024
23.016,8.08
23.02,8.236
23.024,8.26
23.028,8.564
23.032,9.284
23.036,9.784
23.04,9.808
23.044,9.352
23.048,8.748
23.052,8.416
23.056,8.308
23.06,8.028
23.064,7.948
23.068,7.992
23.072,8.052
23.076,8.004
23.08,8.024
23.084,8.156
23.088,8.252
23.092,8.112
23.096,8.072
23.1,8.168
23.104,8.276
23.108,8.144
23.112,8.1
23.116,8.156
23.12,8.26
23.124,8.176
23.128,8.144
23.132,8.176
23.136,8.272
23.14,8.256
23.144,8.164
23.148,8.176
23.152,8.248
23.156,8.308
23.16,8.224
23.164,8.224
23.168,8.288
23.172,8.376
23.176,8.248
23.18,8.212
23.184,8.292
23.188,8.408
23.192,8.288
23.196,8.256
23.2,8.324
23.204,8.448
23.208,8.36
23.212,8.308
23.216,8.364
23.22,8.468
23.224,8.404
23.228,8.376
23.232,8.436
23.236,8.504
23.24,8.512
23.244,8.444
23.248,8.492
23.252,8.588
23.256,8.688
23.26,8.588
23.264,8.588
23.268,8.7
23.272,8.832
23.276,8.7
23.28,8.684
23.284,8.804
23.288,8.9
23.292,8.776
23.296,8.756
23.3,8.852
23.304,8.952
23.308,8.82
23.312,8.716
23.316,8.748
23.32,8.776
23.324,8.668
23.328,8.56
23.332,8.52
23.336,8.536
23.34,8.5
23.344,8.34
23.348,8.292
23.352,8.32
23.356,8.34
23.36,8.196
23.364,8.148
23.368,8.188
23.372,8.26
23.376,8.084
23.38,8.032
23.384,8.096
23.388,8.212
23.392,8.068
23.396,8.004
23.4,8.108
23.404,8.184
23.408,8.064
23.412,8.004
23.416,8.056
23.42,8.168
23.424,8.1
23.428,8.004
23.432,8.052
23.436,8.136
23.44,8.132
23.444,8.024
23.448,8.032
23.452,8.088
23.456,8.164
23.46,8.032
23.464,8.04
23.468,8.128
23.472,8.224
23.476,8.068
23.48,8.008
23.484,8.1
23.488,8.212
23.492,8.088
23.496,8.02
23.5,8.112
23.504,8.232
23.508,8.108
23.512,8.064
23.516,8.1
23.52,8.188
23.524,8.136
23.528,8.056
23.532,8.068
23.536,8.144
23.54,8.14
23.544,8.048
23.548,8.032
23.552,8.096
23.556,8.168
23.56,8.04
23.564,8.036
23.568,8.128
23.572,8.204
23.576,8.04
23.58,8.004
23.584,8.092
23.588,8.192
23.592,8.044
23.596,8
23.6,8.072
23.604,8.164
23.608,8.072
23.612,8.012
23.616,8.052
23.62,8.14
23.624,8.104
23.628,7.996
23.632,8.052
23.636,8.14
23.64,8.144
23.644,8.012
23.648,8.02
23.652,8.108
23.656,8.168
23.66,8.048
23.664,8.008
23.668,8.092
23.672,8.172
23.676,8.016
23.68,7.984
23.684,8.068
23.688,8.168
23.692,8.024
23.696,7.988
23.7,8.072
23.704,8.164
23.708,8.056
23.712,7.984
23.716,8.024
23.72,8.104
23.724,8.068
23.728,8.008
23.732,8.032
23.736,8.116
23.74,8.128
23.744,8.02
23.748,8.024
23.752,8.108
23.756,8.172
23.76,8.032
23.764,8.012
23.768,8.08
23.772,8.168
23.776,8.036
23.78,7.98
23.784,8.064
23.788,8.18
23.792,8.04
23.796,8
23.8,8.06
23.804,8.152
23.808,8.044
23.812,7.984
23.816,8.04
23.82,8.12
23.824,8.08
23.828,7.996
23.832,8.008
23.836,8.088
23.84,8.108
23.844,8.04
23.848,8.032
23.852,8.128
23.856,8.204
23.86,8.08
23.864,8.088
23.868,8.176
23.872,8.304
23.876,8.176
23.88,8.124
23.884,8.24
23.888,8.312
23.892,8.208
23.896,8.168
23.9,8.2
23.904,8.288
23.908,8.184
23.912,8.104
23.916,8.128
23.92,8.16
23.924,8.072
23.928,7.992
23.932,8.004
23.936,8.052
23.94,8.052
23.944,7.936
23.948,7.928
23.952,7.996
23.956,8.072
23.96,7.956
23.964,7.92
23.968,7.996
23.972,8.108
23.976,7.956
23.98,7.916
23.984,7.992
23.988,8.1
23.992,7.952
23.996,7.912
24,7.988
24.004,8.092
24.008,8
24.012,8
24.016,8.124
24.02,8.588
24.024,9.28
24.028,9.556
24.032,9.6
24.036,9.26
24.04,8.676
24.044,8.22
24.048,8.12
24.052,8.028
24.056,7.992
24.06,7.864
24.064,7.816
24.068,7.98
24.072,8.14
24.076,8.04
24.08,8
24.084,8.1
24.088,8.184
24.092,8.052
24.096,8.02
24.1,8.092
24.104,8.176
24.108,8.084
24.112,8.024
24.116,8.088
24.12,8.144
24.124,8.14
24.128,8.06
24.132,8.076
24.136,8.156
24.14,8.192
24.144,8.06
24.148,8.06
24.152,8.18
24.156,8.248
24.16,8.116
24.164,8.116
24.168,8.22
24.172,8.32
24.176,8.168
24.18,8.136
24.184,8.204
24.188,8.304
24.192,8.204
24.196,8.156
24.2,8.276
24.204,8.344
24.208,8.284
24.212,8.216
24.216,8.288
24.22,8.368
24.224,8.38
24.228,8.296
24.232,8.368
24.236,8.476
24.24,8.528
24.244,8.412
24.248,8.436
24.252,8.568
24.256,8.652
24.26,8.536
24.264,8.512
24.268,8.652
24.272,8.772
24.276,8.648
24.28,8.616
24.284,8.732
24.288,8.808
24.292,8.692
24.296,8.652
24.3,8.724
24.304,8.776
24.308,8.656
24.312,8.544
24.316,8.54
24.32,8.552
24.324,8.492
24.328,8.324
24.332,8.312
24.336,8.328
24.34,8.336
24.344,8.164
24.348,8.112
24.352,8.176
24.356,8.188
24.36,8.044
24.364,7.988
24.368,8.052
24.372,8.128
24.376,7.984
24.38,7.9
24.384,7.988
24.388,8.08
24.392,7.976
24.396,7.92
24.4,7.988
24.404,8.06
24.408,7.988
24.412,7.92
24.416,7.972
24.42,8.036
24.424,7.996
24.428,7.904
24.432,7.952
24.436,8.032
24.44,8.068
24.444,7.924
24.448,7.924
24.452,7.988
24.456,8.08
24.46,7.952
24.464,7.912
24.468,8.02
24.472,8.108
24.476,7.96
24.48,7.908
24.484,8.02
24.488,8.088
24.492,7.96
24.496,7.916
24.5,8.016
24.504,8.1
24.508,8.016
24.512,7.952
24.516,7.976
24.52,8.032
24.524,8.028
24.528,7.932
24.532,7.96
24.536,8.044
24.54,8.096
24.544,7.96
24.548,7.952
24.552,8.04
24.556,8.1
24.56,7.948
24.564,7.912
24.568,8.004
24.572,8.072
24.576,7.924
24.58,7.904
24.584,8.004
24.588,8.072
24.592,7.964
24.596,7.896
24.6,7.976
24.604,8.036
24.608,7.98
24.612,7.888
24.616,7.944
24.62,8.016
24.624,8.012
24.628,7.896
24.632,7.932
24.636,8.012
24.64,8.028
24.644,7.884
24.648,7.86
24.652,7.952
24.656,8.048
24.66,7.892
24.664,7.872
24.668,7.968
24.672,8.06
24.676,7.916
24.68,7.88
24.684,7.952
24.688,8.032
24.692,7.932
24.696,7.864
24.7,7.92
24.704,8.012
24.708,7.956
24.712,7.864
24.716,7.904
24.72,7.988
24.724,7.976
24.728,7.88
24.732,7.888
24.736,7.972
24.74,8.008
24.744,7.88
24.748,7.856
24.752,7.968
24.756,8.036
24.76,7.9
24.764,7.876
24.768,7.956
24.772,8.056
24.776,7.936
24.78,7.848
24.784,7.944
24.788,8.004
24.792,7.94
24.796,7.864
24.8,7.936
24.804,8.024
24.808,8
24.812,7.884
24.816,7.972
24.82,8.024
24.824,8.044
24.828,7.948
24.832,7.972
24.836,8.06
24.84,8.128
24.844,8.028
24.848,8.04
24.852,8.116
24.856,8.188
24.86,8.072
24.864,8.064
24.868,8.172
24.872,8.216
24.876,8.06
24.88,7.972
24.884,8.008
24.888,8.068
24.892,7.952
24.896,7.872
24.9,7.932
24.904,8
24.908,7.94
24.912,7.844
24.916,7.876
24.92,7.972
24.924,7.928
24.928,7.824
24.932,7.86
24.936,7.952
24.94,7.976
24.944,7.856
24.948,7.848
24.952,7.936
24.956,7.996
24.96,7.892
24.964,7.832
24.968,7.948
24.972,8.008
24.976,7.88
24.98,7.832
24.984,7.992
24.988,8.232
24.992,8.62
24.996,9.336
25,9.568
25.004,9.552
25.008,8.9
25.012,8.316
25.016,8.124
25.02,8.096
25.024,7.864
25.028,7.752
25.032,7.756
25.036,7.888
25.04,7.928
25.044,7.908
25.048,7.94
25.052,8.044
25.056,8.084
25.06,7.996
25.064,7.968
25.068,8.06
25.072,8.112
25.076,8.028
25.08,7.964
25.084,8.068
25.088,8.14
25.092,8.064
25.096,7.996
25.1,8.088
25.104,8.16
25.108,8.132
25.112,8.048
25.116,8.108
25.12,8.192
25.124,8.168
25.128,8.084
25.132,8.108
25.136,8.22
25.14,8.22
25.144,8.144
25.148,8.124
25.152,8.22
25.156,8.248
25.16,8.192
25.164,8.156
25.168,8.28
25.172,8.34
25.176,8.276
25.18,8.212
25.184,8.316
25.188,8.392
25.192,8.34
25.196,8.296
25.2,8.388
25.204,8.496
25.208,8.452
25.212,8.408
25.216,8.48
25.22,8.596
25.224,8.588
25.228,8.536
25.232,8.56
25.236,8.696
25.24,8.7
25.244,8.64
25.248,8.636
25.252,8.756
25.256,8.804
25.26,8.692
25.264,8.66
25.268,8.76
25.272,8.808
25.276,8.668
25.28,8.584
25.284,8.596
25.288,8.652
25.292,8.476
25.296,8.388
25.3,8.408
25.304,8.44
25.308,8.32
25.312,8.176
25.316,8.18
25.32,8.24
25.324,8.16
25.328,8.068
25.332,8.076
25.336,8.152
25.34,8.144
25.344,8.048
25.348,8.012
25.352,8.084
25.356,8.108
25.36,8.016
25.364,7.964
25.368,8.072
25.372,8.092
25.376,8.008
25.38,7.944
25.384,8.06
25.388,8.1
25.392,8.048
25.396,7.98
25.4,8.048
25.404,8.12
25.408,8.072
25.412,7.976
25.416,8.024
25.42,8.1
25.424,8.08
25.428,8
25.432,8.028
25.436,8.12
25.44,8.132
25.444,8.04
25.448,8.044
25.452,8.1
25.456,8.152
25.46,8.06
25.464,8.016
25.468,8.088
25.472,8.164
25.476,8.084
25.48,8.024
25.484,8.092
25.488,8.168
25.492,8.076
25.496,8.02
25.5,8.096
25.504,8.176
25.508,8.096
25.512,8.052
25.516,8.064
25.52,8.152
25.524,8.096
25.528,8.032
25.532,8.048
25.536,8.112
25.54,8.124
25.544,8.036
25.548,8.008
25.552,8.092
25.556,8.14
25.56,8.016
25.564,7.992
25.568,8.08
25.572,8.168
25.576,8.064
25.58,7.988
25.584,8.08
25.588,8.144
25.592,8.048
25.596,7.992
25.6,8.052
25.604,8.132
25.608,8.072
25.612,8.024
25.616,8.064
25.62,8.124
25.624,8.08
25.628,7.992
25.632,8.016
25.636,8.124
25.64,8.136
25.644,8.044
25.648,8.012
25.652,8.1
25.656,8.128
25.66,8.024
25.664,7.988
25.668,8.116
25.672,8.168
25.676,8.068
25.68,8.016
25.684,8.088
25.688,8.156
25.692,8.064
25.696,7.988
25.7,8.044
25.704,8.148
25.708,8.084
25.712,8.044
25.716,8.06
25.72,8.132
25.724,8.092
25.728,8.016
25.732,8.056
25.736,8.116
25.74,8.12
25.744,8.032
25.748,8.028
25.752,8.12
25.756,8.164
25.76,8.076
25.764,8.016
25.768,8.1
25.772,8.032
25.776,8.076
25.78,8.02
25.784,8.108
25.788,8.168
25.792,8.1
25.796,8.028
25.8,8.104
25.804,8.18
25.808,8.112
25.812,8.048
25.816,8.12
25.82,8.196
25.824,8.188
25.828,8.132
25.832,8.136
25.836,8.252
25.84,8.248
25.844,8.216
25.848,8.204
25.852,8.3
25.856,8.324
25.86,8.232
25.864,8.204
25.868,8.3
25.872,8.34
25.876,8.22
25.88,8.164
25.884,8.204
25.888,8.26
25.892,8.156
25.896,8.04
25.9,8.104
25.904,8.192
25.908,8.076
25.912,8.024
25.916,8.068
25.92,8.104
25.924,8.076
25.928,8.016
25.932,8.028
25.936,8.108
25.94,8.116
25.944,8.056
25.948,8.02
25.952,8.128
25.956,8.148
25.96,8.052
25.964,8.036
25.968,8.132
25.972,8.208
25.976,8.144
25.98,8.088
25.984,8.26
25.988,8.532
25.992,8.944
25.996,9.636
26,9.868
26.004,9.916
26.008,9.264
26.012,8.68
26.016,8.328
26.02,8.272
26.024,8.056
26.028,7.928
26.032,7.924
26.036,8.024
26.04,8.188
26.044,8.12
26.048,8.136
26.052,8.216
26.056,8.26
26.06,8.144
26.064,8.084
26.068,8.216
26.072,8.288
26.076,8.184
26.08,8.148
26.084,8.248
26.088,8.328
26.092,8.24
26.096,8.152
26.1,8.228
26.104,8.32
26.108,8.248
26.112,8.2
26.116,8.224
26.12,8.336
26.124,8.312
26.128,8.212
26.132,8.252
26.136,8.344
26.14,8.364
26.144,8.276
26.148,8.264
26.152,8.368
26.156,8.424
26.16,8.3
26.164,8.272
26.168,8.396
26.172,8.472
26.176,8.4
26.18,8.328
26.184,8.436
26.188,8.52
26.192,8.432
26.196,8.396
26.2,8.512
26.204,8.604
26.208,8.572
26.212,8.52
26.216,8.596
26.22,8.72
26.224,8.732
26.228,8.652
26.232,8.692
26.236,8.788
26.24,8.864
26.244,8.776
26.248,8.792
26.252,8.904
26.256,8.944
26.26,8.844
26.264,8.812
26.268,8.896
26.272,8.984
26.276,8.828
26.28,8.752
26.284,8.82
26.288,8.816
26.292,8.668
26.296,8.536
26.3,8.552
26.304,8.568
26.308,8.48
26.312,8.344
26.316,8.368
26.32,8.372
26.324,8.332
26.328,8.2
26.332,8.2
26.336,8.272
26.34,8.296
26.344,8.16
26.348,8.156
26.352,8.252
26.356,8.248
26.36,8.132
26.364,8.08
26.368,8.184
26.372,8.244
26.376,8.136
26.38,8.084
26.384,8.18
26.388,8.232
26.392,8.128
26.396,8.056
26.4,8.152
26.404,8.232
26.408,8.2
26.412,8.084
26.416,8.152
26.42,8.224
26.424,8.232
26.428,8.128
26.432,8.136
26.436,8.236
26.44,8.272
26.444,8.136
26.448,8.124
26.452,8.212
26.456,8.26
26.46,8.132
26.464,8.104
26.468,8.204
26.472,8.276
26.476,8.184
26.48,8.132
26.484,8.212
26.488,8.296
26.492,8.196
26.496,8.132
26.5,8.2
26.504,8.292
26.508,8.232
26.512,8.14
26.516,8.176
26.52,8.276
26.524,8.252
26.528,8.144
26.532,8.152
26.536,8.268
26.54,8.264
26.544,8.184
26.548,8.164
26.552,8.232
26.556,8.3
26.56,8.16
26.564,8.12
26.568,8.212
26.572,8.292
26.576,8.18
26.58,8.112
26.584,8.208
26.588,8.284
26.592,8.156
26.596,8.116
26.6,8.196
26.604,8.284
26.608,8.232
26.612,8.112
26.616,8.18
26.62,8.264
26.624,8.256
26.628,8.14
26.632,8.152
26.636,8.26
26.64,8.268
26.644,8.148
26.648,8.136
26.652,8.244
26.656,8.284
26.66,8.164
26.664,8.128
26.668,8.22
26.672,8.268
26.676,8.192
26.68,8.108
26.684,8.192
26.688,8.272
26.692,8.2
26.696,8.128
26.7,8.18
26.704,8.256
26.708,8.228
26.712,8.108
26.716,8.176
26.72,8.244
26.724,8.244
26.728,8.12
26.732,8.14
26.736,8.22
26.74,8.244
26.744,8.132
26.748,8.124
26.752,8.204
26.756,8.272
26.76,8.164
26.764,8.1
26.768,8.224
26.772,8.264
26.776,8.192
26.78,8.112
26.784,8.216
26.788,8.28
26.792,8.192
26.796,8.116
26.8,8.176
26.804,8.268
26.808,8.232
26.812,8.14
26.816,8.164
26.82,8.264
26.824,8.268
26.828,8.124
26.832,8.16
26.836,8.244
26.84,8.288
26.844,8.184
26.848,8.188
26.852,8.3
26.856,8.344
26.86,8.224
26.864,8.208
26.868,8.32
26.872,8.396
26.876,8.328
26.88,8.296
26.884,8.424
26.888,8.464
26.892,8.36
26.896,8.316
26.9,8.376
26.904,8.42
26.908,8.356
26.912,8.236
26.916,8.276
26.92,8.308
26.924,8.26
26.928,8.112
26.932,8.136
26.936,8.22
26.94,8.208
26.944,8.084
26.948,8.08
26.952,8.196
26.956,8.192
26.96,8.096
26.964,8.064
26.968,8.164
26.972,8.228
26.976,8.156
26.98,8.084
26.984,8.184
26.988,8.244
26.992,8.156
26.996,8.092
27,8.188
27.004,8.264
27.008,8.248
27.012,8.184
27.016,8.312
27.02,8.648
27.024,9.2
27.028,9.748
27.032,9.804
27.036,9.732
27.04,9.168
27.044,8.588
27.048,8.292
27.052,8.292
27.056,8.208
27.06,8.064
27.064,7.992
27.068,8.12
27.072,8.284
27.076,8.224
27.08,8.18
27.084,8.256
27.088,8.356
27.092,8.288
27.096,8.176
27.1,8.252
27.104,8.328
27.108,8.312
27.112,8.2
27.116,8.256
27.12,8.344
27.124,8.336
27.128,8.232
27.132,8.252
27.136,8.36
27.14,8.388
27.144,8.252
27.148,8.276
27.152,8.368
27.156,8.428
27.16,8.3
27.164,8.292
27.168,8.388
27.172,8.46
27.176,8.384
27.18,8.32
27.184,8.408
27.188,8.5
27.192,8.412
27.196,8.344
27.2,8.428
27.204,8.52
27.208,8.5
27.212,8.42
27.216,8.456
27.22,8.552
27.224,8.564
27.228,8.476
27.232,8.5
27.236,8.616
27.24,8.664
27.244,8.592
27.248,8.62
27.252,8.712
27.256,8.784
27.26,8.732
27.264,8.676
27.268,8.792
27.272,8.888
27.276,8.824
27.28,8.792
27.284,8.892
27.288,8.992
27.292,8.928
27.296,8.812
27.3,8.884
27.304,8.948
27.308,8.904
27.312,8.76
27.316,8.784
27.32,8.8
27.324,8.736
27.328,8.544
27.332,8.504
27.336,8.536
27.34,8.52
27.344,8.36
27.348,8.316
27.352,8.36
27.356,8.384
27.36,8.24
27.364,8.16
27.368,8.252
27.372,8.28
27.376,8.168
27.38,8.104
27.384,8.18
27.388,8.244
27.392,8.192
27.396,8.048
27.4,8.124
27.404,8.224
27.408,8.172
27.412,8.06
27.416,8.096
27.42,8.176
27.424,8.168
27.428,8.032
27.432,8.072
27.436,8.152
27.44,8.176
27.444,8.072
27.448,8.052
27.452,8.168
27.456,8.204
27.46,8.1
27.464,8.028
27.468,8.14
27.472,8.188
27.476,8.108
27.48,8.052
27.484,8.132
27.488,8.208
27.492,8.128
27.496,8.036
27.5,8.12
27.504,8.18
27.508,8.14
27.512,8.056
27.516,8.12
27.52,8.204
27.524,8.176
27.528,8.064
27.532,8.088
27.536,8.164
27.54,8.172
27.544,8.096
27.548,8.072
27.552,8.144
27.556,8.212
27.56,8.088
27.564,8.02
27.568,8.12
27.572,8.196
27.576,8.116
27.58,8.016
27.584,8.128
27.588,8.192
27.592,8.096
27.596,7.992
27.6,8.092
27.604,8.172
27.608,8.128
27.612,8.04
27.616,8.088
27.62,8.16
27.624,8.14
27.628,8.04
27.632,8.056
27.636,8.124
27.64,8.128
27.644,8.056
27.648,8.02
27.652,8.136
27.656,8.156
27.66,8.036
27.664,7.996
27.668,8.08
27.672,8.156
27.676,8.064
27.68,7.984
27.684,8.076
27.688,8.14
27.692,8.072
27.696,7.956
27.7,8.04
27.704,8.12
27.708,8.072
27.712,7.976
27.716,8.016
27.72,8.12
27.724,8.084
27.728,7.984
27.732,7.972
27.736,8.08
27.74,8.088
27.744,8.012
27.748,7.988
27.752,8.072
27.756,8.096
27.76,7.976
27.764,7.948
27.768,8.04
27.772,8.1
27.776,8.024
27.78,7.952
27.784,8.048
27.788,8.124
27.792,8.02
27.796,7.92
27.8,8.024
27.804,8.084
27.808,8.056
27.812,7.952
27.816,8.012
27.82,8.104
27.824,8.068
27.828,7.964
27.832,7.976
27.836,8.068
27.84,8.084
27.844,7.984
27.848,7.94
27.852,8.044
27.856,8.076
27.86,7.976
27.864,7.9
27.868,8.02
27.872,8.084
27.876,8.008
27.88,7.924
27.884,8.016
27.888,8.064
27.892,8.044
27.896,7.928
27.9,7.988
27.904,8.092
27.908,8.072
27.912,7.98
27.916,8.04
27.92,8.124
27.924,8.116
27.928,8.052
27.932,8.084
27.936,8.188
27.94,8.208
27.944,8.076
27.948,8.104
27.952,8.204
27.956,8.224
27.96,8.104
27.964,8.02
27.968,8.08
27.972,8.132
27.976,8.028
27.98,7.876
27.984,7.984
27.988,8.04
27.992,7.956
27.996,7.808
28,7.912
28.004,7.988
28.008,7.96
28.012,7.856
28.016,7.908
28.02,7.988
28.024,7.964
28.028,7.852
28.032,7.86
28.036,7.956
28.04,7.972
28.044,7.856
28.048,7.848
28.052,7.952
28.056,8
28.06,7.876
28.064,7.816
28.068,7.968
28.072,8.18
28.076,8.52
28.08,9.184
28.084,9.56
28.088,9.62
28.092,9.056
28.096,8.388
28.1,8.152
28.104,8.172
28.108,7.944
28.112,7.752
28.116,7.788
28.12,7.884
28.124,7.94
28.128,7.876
28.132,7.924
28.136,8.012
28.14,8.056
28.144,7.956
28.148,7.936
28.152,8.04
28.156,8.092
28.16,8
28.164,7.936
28.168,8.04
28.172,8.124
28.176,8.04
28.18,7.952
28.184,8.052
28.188,8.148
28.192,8.064
28.196,7.98
28.2,8.044
28.204,8.136
28.208,8.108
28.212,8.02
28.216,8.076
28.22,8.184
28.224,8.176
28.228,8.064
28.232,8.08
28.236,8.188
28.24,8.2
28.244,8.132
28.248,8.096
28.252,8.228
28.256,8.288
28.26,8.192
28.264,8.136
28.268,8.26
28.272,8.328
28.276,8.28
28.28,8.212
28.284,8.312
28.288,8.44
28.292,8.364
28.296,8.296
28.3,8.416
28.304,8.524
28.308,8.488
28.312,8.424
28.316,8.512
28.32,8.592
28.324,8.624
28.328,8.552
28.332,8.564
28.336,8.668
28.34,8.724
28.344,8.632
28.348,8.6
28.352,8.692
28.356,8.748
28.36,8.64
28.364,8.528
28.368,8.6
28.372,8.596
28.376,8.496
28.38,8.34
28.384,8.384
28.388,8.412
28.392,8.28
28.396,8.14
28.4,8.18
28.404,8.212
28.408,8.148
28.412,8.012
28.416,8.028
28.42,8.08
28.424,8.06
28.428,7.948
28.432,7.94
28.436,8.032
28.44,8.028
28.444,7.932
28.448,7.876
28.452,7.996
28.456,8.048
28.46,7.956
28.464,7.872
28.468,7.96
28.472,8.04
28.476,7.948
28.48,7.88
28.484,7.984
28.488,8.052
28.492,7.952
28.496,7.852
28.5,7.932
28.504,8.02
28.508,7.944
28.512,7.884
28.516,7.924
28.52,8.02
28.524,8.004
28.528,7.912
28.532,7.916
28.536,8.004
28.54,8.012
28.544,7.952
28.548,7.896
28.552,7.988
28.556,8.068
28.56,7.952
28.564,7.864
28.568,7.972
28.572,8.052
28.576,7.948
28.58,7.876
28.584,7.956
28.588,8.044
28.592,7.984
28.596,7.872
28.6,7.952
28.604,8.016
28.608,7.984
28.612,7.9
28.616,7.952
28.62,8.04
28.624,8.032
28.628,7.916
28.632,7.908
28.636,8.016
28.64,8.012
28.644,7.948
28.648,7.888
28.652,7.996
28.656,8.06
28.66,7.98
28.664,7.884
28.668,7.976
28.672,8.052
28.676,7.968
28.68,7.86
28.684,7.944
28.688,8.044
28.692,7.972
28.696,7.88
28.7,7.932
28.704,8.024
28.708,7.98
28.712,7.88
28.716,7.924
28.72,8.024
28.724,8.016
28.728,7.924
28.732,7.912
28.736,8.016
28.74,8.024
28.744,7.948
28.748,7.904
28.752,7.996
28.756,8.044
28.76,7.96
28.764,7.86
28.768,7.952
28.772,8.024
28.776,7.952
28.78,7.888
28.784,7.972
28.788,8.024
28.792,7.944
28.796,7.86
28.8,7.948
28.804,8.028
28.808,7.964
28.812,7.892
28.816,7.924
28.82,8.02
28.824,7.988
28.828,7.916
28.832,7.916
28.836,8
28.84,8.012
28.844,7.94
28.848,7.908
28.852,7.992
28.856,8.04
28.86,7.964
28.864,7.908
28.868,7.992
28.872,8.044
28.876,7.944
28.88,7.892
28.884,7.968
28.888,8.036
28.892,7.956
28.896,7.896
28.9,7.952
28.904,8.04
28.908,8
28.912,7.928
28.916,7.956
28.92,8.04
28.924,8.048
28.928,7.96
28.932,7.964
28.936,8.052
28.94,8.08
28.944,8.008
28.948,8.012
28.952,8.092
28.956,8.172
28.96,8.116
28.964,8.064
28.968,8.168
28.972,8.212
28.976,8.156
28.98,8.1
28.984,8.152
28.988,8.188
28.992,8.112
28.996,8.02
29,8.048
29.004,8.092
29.008,8.012
29.012,7.948
29.016,7.952
29.02,8.016
29.024,7.976
29.028,7.916
29.032,7.888
29.036,7.976
29.04,7.988
29.044,7.912
29.048,7.884
29.052,7.968
29.056,8.036
29.06,7.94
29.064,7.888
29.068,7.972
29.072,8.052
29.076,7.936
29.08,7.892
29.084,7.96
29.088,8.044
29.092,7.968
29.096,7.992
29.1,8.196
29.104,8.74
29.108,9.48
29.112,9.636
29.116,9.636
29.12,9.164
29.124,8.624
29.128,8.228
29.132,8.144
29.136,8.068
29.14,7.988
29.144,7.832
29.148,7.836
29.152,8.008
29.156,8.112
29.16,8.056
29.164,8
29.168,8.108
29.172,8.148
29.176,8.056
29.18,8.008
29.184,8.12
29.188,8.164
29.192,8.124
29.196,8.052
29.2,8.096
29.204,8.192
29.208,8.136
29.212,8.06
29.216,8.128
29.22,8.184
29.224,8.18
29.228,8.124
29.232,8.088
29.236,8.204
29.24,8.256
29.244,8.16
29.248,8.132
29.252,8.244
29.256,8.276
29.26,8.22
29.264,8.152
29.268,8.256
29.272,8.308
29.276,8.24
29.28,8.22
29.284,8.304
29.288,8.388
29.292,8.348
29.296,8.276
29.3,8.352
29.304,8.44
29.308,8.404
29.312,8.36
29.316,8.392
29.32,8.532
29.324,8.54
29.328,8.46
29.332,8.484
29.336,8.596
29.34,8.636
29.344,8.56
29.348,8.6
29.352,8.692
29.356,8.784
29.36,8.68
29.364,8.616
29.368,8.76
29.372,8.832
29.376,8.728
29.38,8.68
29.384,8.768
29.388,8.812
29.392,8.696
29.396,8.576
29.4,8.604
29.404,8.6
29.408,8.488
29.412,8.376
29.416,8.368
29.42,8.392
29.424,8.304
29.428,8.196
29.432,8.148
29.436,8.188
29.44,8.188
29.444,8.048
29.448,8.02
29.452,8.088
29.456,8.104
29.46,7.996
29.464,7.928
29.468,8
29.472,8.056
29.476,7.952
29.48,7.92
29.484,8
29.488,8.064
29.492,7.984
29.496,7.896
29.5,7.928
29.504,8.02
29.508,7.964
29.512,7.904
29.516,7.932
29.52,8.012
29.524,8.004
29.528,7.936
29.532,7.92
29.536,7.992
29.54,8.068
29.544,7.96
29.548,7.948
29.552,8.024
29.556,8.08
29.56,7.976
29.564,7.952
29.568,8.032
29.572,8.1
29.576,8.016
29.58,7.944
29.584,8.044
29.588,8.108
29.592,8.032
29.596,7.96
29.6,7.996
29.604,8.084
29.608,8.04
29.612,7.976
29.616,8.004
29.62,8.084
29.624,8.068
29.628,7.992
29.632,7.936
29.636,8.068
29.64,8.068
29.644,7.996
29.648,7.972
29.652,8.032
29.656,8.104
29.66,7.992
29.664,7.912
29.668,8.028
29.672,8.072
29.676,7.976
29.68,7.956
29.684,8.012
29.688,8.084
29.692,8
29.696,7.94
29.7,8.02
29.704,8.072
29.708,7.992
29.712,7.944
29.716,8
29.72,8.028
29.724,8.028
29.728,7.972
29.732,7.96
29.736,8.032
29.74,8.056
29.744,8
29.748,7.944
29.752,8.036
29.756,8.072
29.76,7.996
29.764,7.936
29.768,8.024
29.772,8.088
29.776,8
29.78,7.956
29.784,8.032
29.788,8.084
29.792,8.024
29.796,7.968
29.8,8
29.804,8.084
29.808,8.024
29.812,7.94
29.816,7.988
29.82,8.08
29.824,8.048
29.828,7.992
29.832,7.96
29.836,8.064
29.84,8.068
29.844,8.008
29.848,7.98
29.852,8.064
29.856,8.124
29.86,8.044
29.864,7.976
29.868,8.044
29.872,8.096
29.876,8.032
29.88,7.98
29.884,8.06
29.888,8.124
29.892,8.024
29.896,8.016
29.9,8.032
29.904,8.104
29.908,8.024
29.912,7.996
29.916,8.024
29.92,8.092
29.924,8.092
29.928,8.032
29.932,8.028
29.936,8.136
29.94,8.152
29.944,8.116
29.948,8.08
29.952,8.164
29.956,8.216
29.96,8.204
29.964,8.144
29.968,8.212
29.972,8.284
29.976,8.22
29.98,8.164
29.984,8.236
29.988,8.304
29.992,8.188
29.996,8.096
30,8.124
30.004,8.172
30.008,8.084
30.012,8.028
30.016,8.04
30.02,8.096
30.024,8.044
30.028,7.984
30.032,7.952
30.036,8.024
30.04,8.048
30.044,7.992
30.048,7.928
30.052,8.048
30.056,8.088
30.06,7.992
30.064,7.952
30.068,8.032
30.072,8.1
30.076,8.016
30.08,7.976
30.084,8.044
30.088,8.136
30.092,8.096
30.096,8.104
30.1,8.2
30.104,8.536
30.108,9.056
30.112,9.72
30.116,9.864
30.12,9.78
30.124,9.16
30.128,8.576
30.132,8.196
30.136,8.132
30.14,8.008
30.144,7.908
30.148,7.86
30.152,7.972
30.156,8.144
30.16,8.112
30.164,8.088
30.168,8.152
30.172,8.22
30.176,8.16
30.18,8.092
30.184,8.152
30.188,8.236
30.192,8.184
30.196,8.116
30.2,8.148
30.204,8.232
30.208,8.2
30.212,8.128
30.216,8.176
30.22,8.248
30.224,8.24
30.228,8.208
30.232,8.192
30.236,8.276
30.24,8.308
30.244,8.252
30.248,8.2
30.252,8.28
30.256,8.356
30.26,8.252
30.264,8.212
30.268,8.312
30.272,8.392
30.276,8.328
30.28,8.264
30.284,8.36
30.288,8.444
30.292,8.368
30.296,8.328
30.3,8.38
30.304,8.452
30.308,8.436
30.312,8.42
30.316,8.444
30.32,8.556
30.324,8.552
30.328,8.5
30.332,8.512
30.336,8.632
30.34,8.684
30.344,8.66
30.348,8.648
30.352,8.76
30.356,8.828
30.36,8.764
30.364,8.728
30.368,8.8
30.372,8.896
30.376,8.836
30.38,8.796
30.384,8.828
30.388,8.896
30.392,8.804
30.396,8.736
30.4,8.716
30.404,8.756
30.408,8.66
30.412,8.532
30.416,8.48
30.42,8.528
30.424,8.456
30.428,8.344
30.432,8.288
30.436,8.296
30.44,8.3
30.444,8.232
30.448,8.152
30.452,8.22
30.456,8.236
30.46,8.172
30.464,8.108
30.468,8.132
30.472,8.22
30.476,8.164
30.48,8.072
30.484,8.124
30.488,8.24
30.492,8.148
30.496,8.076
30.5,8.056
30.504,8.16
30.508,8.116
30.512,8.088
30.516,8.104
30.52,8.192
30.524,8.144
30.528,8.108
30.532,8.1
30.536,8.172
30.54,8.212
30.544,8.14
30.548,8.092
30.552,8.168
30.556,8.232
30.56,8.16
30.564,8.1
30.568,8.148
30.572,8.248
30.576,8.152
30.58,8.116
30.584,8.148
30.588,8.26
30.592,8.184
30.596,8.14
30.6,8.156
30.604,8.248
30.608,8.188
30.612,8.148
30.616,8.148
30.62,8.22
30.624,8.232
30.628,8.164
30.632,8.14
30.636,8.172
30.64,8.228
30.644,8.124
30.648,8.08
30.652,8.168
30.656,8.24
30.66,8.16
30.664,8.112
30.668,8.144
30.672,8.212
30.676,8.144
30.68,8.092
30.684,8.152
30.688,8.228
30.692,8.156
30.696,8.108
30.7,8.132
30.704,8.188
30.708,8.144
30.712,8.1
30.716,8.096
30.72,8.188
30.724,8.18
30.728,8.132
30.732,8.104
30.736,8.16
30.74,8.18
30.744,8.116
30.748,8.068
30.752,8.136
30.756,8.236
30.76,8.16
30.764,8.108
30.768,8.132
30.772,8.228
30.776,8.128
30.78,8.072
30.784,8.132
30.788,8.228
30.792,8.168
30.796,8.128
30.8,8.148
30.804,8.236
30.808,8.148
30.812,8.12
30.816,8.128
30.82,8.2
30.824,8.196
30.828,8.136
30.832,8.1
30.836,8.184
30.84,8.208
30.844,8.16
30.848,8.112
30.852,8.18
30.856,8.264
30.86,8.148
30.864,8.14
30.868,8.148
30.872,8.248
30.876,8.16
30.88,8.108
30.884,8.156
30.888,8.232
30.892,8.164
30.896,8.128
30.9,8.112
30.904,8.208
30.908,8.16
30.912,8.132
30.916,8.112
30.92,8.188
30.924,8.224
30.928,8.18
30.932,8.172
30.936,8.228
30.94,8.268
30.944,8.22
30.948,8.188
30.952,8.268
30.956,8.352
30.96,8.268
30.964,8.244
30.968,8.304
30.972,8.408
30.976,8.32
30.98,8.304
30.984,8.316
30.988,8.416
30.992,8.328
30.996,8.216
31,8.244
31.004,8.304
31.008,8.232
31.012,8.164
31.016,8.148
31.02,8.188
31.024,8.192
31.028,8.108
31.032,8.052
31.036,8.12
31.04,8.16
31.044,8.084
31.048,8.036
31.052,8.108
31.056,8.192
31.06,8.12
31.064,8.052
31.068,8.072
31.072,8.176
31.076,8.088
31.08,8.044
31.084,8.108
31.088,8.244
31.092,8.176
31.096,8.168
31.1,8.176
31.104,8.332
31.108,8.424
31.112,8.844
31.116,9.556
31.12,9.872
31.124,9.876
31.128,9.308
31.132,8.724
31.136,8.344
31.14,8.248
31.144,8.04
31.148,7.944
31.152,7.988
31.156,8.112
31.16,8.108
31.164,8.156
31.168,8.212
31.172,8.272
31.176,8.176
31.18,8.148
31.184,8.18
31.188,8.252
31.192,8.204
31.196,8.172
31.2,8.192
31.204,8.296
31.208,8.26
31.212,8.204
31.216,8.204
31.22,8.308
31.224,8.316
31.228,8.256
31.232,8.248
31.236,8.284
31.24,8.332
31.244,8.232
31.248,8.252
31.252,8.288
31.256,8.412
31.26,8.308
31.264,8.292
31.268,8.364
31.272,8.428
31.276,8.376
31.28,8.328
31.284,8.376
31.288,8.468
31.292,8.412
31.296,8.372
31.3,8.4
31.304,8.488
31.308,8.468
31.312,8.412
31.316,8.452
31.32,8.536
31.324,8.6
31.328,8.524
31.332,8.544
31.336,8.64
31.34,8.72
31.344,8.672
31.348,8.66
31.352,8.764
31.356,8.876
31.36,8.764
31.364,8.78
31.368,8.848
31.372,8.932
31.376,8.848
31.38,8.844
31.384,8.852
31.388,8.968
31.392,8.904
31.396,8.828
31.4,8.84
31.404,8.864
31.408,8.8
31.412,8.672
31.416,8.636
31.42,8.632
31.424,8.612
31.428,8.46
31.432,8.4
31.436,8.412
31.44,8.436
31.444,8.284
31.448,8.252
31.452,8.28
31.456,8.352
31.46,8.212
31.464,8.184
31.468,8.232
31.472,8.284
31.476,8.184
31.48,8.136
31.484,8.168
31.488,8.248
31.492,8.192
31.496,8.144
31.5,8.168
31.504,8.232
31.508,8.164
31.512,8.12
31.516,8.112
31.52,8.176
31.524,8.22
31.528,8.156
31.532,8.156
31.536,8.16
31.54,8.24
31.544,8.156
31.548,8.132
31.552,8.18
31.556,8.276
31.56,8.176
31.564,8.164
31.568,8.192
31.572,8.264
31.576,8.168
31.58,8.18
31.584,8.204
31.588,8.28
31.592,8.212
31.596,8.164
31.6,8.204
31.604,8.28
31.608,8.252
31.612,8.188
31.616,8.204
31.62,8.268
31.624,8.296
31.628,8.2
31.632,8.192
31.636,8.216
31.64,8.284
31.644,8.2
31.648,8.18
31.652,8.248
31.656,8.348
31.66,8.204
31.664,8.184
31.668,8.236
31.672,8.308
31.676,8.216
31.68,8.184
31.684,8.208
31.688,8.284
31.692,8.248
31.696,8.184
31.7,8.2
31.704,8.264
31.708,8.236
31.712,8.156
31.716,8.18
31.72,8.24
31.724,8.316
31.728,8.18
31.732,8.204
31.736,8.204
31.74,8.276
31.744,8.184
31.748,8.156
31.752,8.212
31.756,8.304
31.76,8.228
31.764,8.164
31.768,8.208
31.772,8.3
31.776,8.204
31.78,8.18
31.784,8.232
31.788,8.268
31.792,8.236
31.796,8.156
31.8,8.208
31.804,8.284
31.808,8.224
31.812,8.152
31.816,8.2
31.82,8.248
31.824,8.284
31.828,8.192
31.832,8.212
31.836,8.252
31.84,8.312
31.844,8.176
31.848,8.156
31.852,8.216
31.856,8.304
31.86,8.196
31.864,8.168
31.868,8.248
31.872,8.288
31.876,8.224
31.88,8.176
31.884,8.216
31.888,8.308
31.892,8.264
31.896,8.196
31.9,8.228
31.904,8.284
31.908,8.28
31.912,8.18
31.916,8.228
31.92,8.26
31.924,8.292
31.928,8.244
31.932,8.236
31.936,8.28
31.94,8.4
31.944,8.308
31.948,8.32
31.952,8.376
31.956,8.436
31.96,8.388
31.964,8.368
31.968,8.404
31.972,8.484
31.976,8.42
31.98,8.384
31.984,8.436
31.988,8.476
31.992,8.408
31.996,8.324
32,8.348
32.004,8.364
32.008,8.332
32.012,8.216
32.016,8.256
32.02,8.276
32.024,8.284
32.028,8.192
32.032,8.188
32.036,8.236
32.04,8.284
32.044,8.18
32.048,8.16
32.052,8.22
32.056,8.312
32.06,8.216
32.064,8.192
32.068,8.216
32.072,8.288
32.076,8.236
32.08,8.2
32.084,8.292
32.088,8.36
32.092,8.304
32.096,8.288
32.1,8.356
32.104,8.696
32.108,9.288
32.112,9.776
32.116,9.812
32.12,9.648
32.124,9.136
32.128,8.58
32.132,8.352
32.136,8.256
32.14,8.236
32.144,8.12
32.148,8.096
32.152,8.176
32.156,8.4
32.16,8.348
32.164,8.28
32.168,8.308
32.172,8.404
32.176,8.328
32.18,8.256
32.184,8.34
32.188,8.388
32.192,8.368
32.196,8.292
32.2,8.348
32.204,8.452
32.208,8.416
32.212,8.296
32.216,8.328
32.22,8.392
32.224,8.464
32.228,8.376
32.232,8.38
32.236,8.412
32.24,8.504
32.244,8.404
32.248,8.348
32.252,8.44
32.256,8.552
32.26,8.468
32.264,8.428
32.268,8.46
32.272,8.556
32.276,8.5
32.28,8.456
32.284,8.524
32.288,8.588
32.292,8.588
32.296,8.516
32.3,8.588
32.304,8.628
32.308,8.656
32.312,8.636
32.316,8.648
32.32,8.724
32.324,8.796
32.328,8.736
32.332,8.744
32.336,8.832
32.34,8.936
32.344,8.856
32.348,8.84
32.352,8.932
32.356,9.056
32.36,8.992
32.364,8.952
32.368,9.024
32.372,9.092
32.376,9.072
32.38,9
32.384,9.052
32.388,9.068
32.392,9.044
32.396,8.936
32.4,8.928
32.404,8.9
32.408,8.884
32.412,8.756
32.416,8.7
32.42,8.664
32.424,8.688
32.428,8.552
32.432,8.504
32.436,8.496
32.44,8.536
32.444,8.424
32.448,8.356
32.452,8.416
32.456,8.428
32.46,8.372
32.464,8.304
32.468,8.352
32.472,8.404
32.476,8.344
32.48,8.28
32.484,8.332
32.488,8.344
32.492,8.352
32.496,8.264
32.5,8.3
32.504,8.316
32.508,8.336
32.512,8.276
32.516,8.296
32.52,8.328
32.524,8.352
32.528,8.312
32.532,8.276
32.536,8.32
32.54,8.36
32.544,8.304
32.548,8.24
32.552,8.316
32.556,8.372
32.56,8.324
32.564,8.244
32.568,8.332
32.572,8.38
32.576,8.348
32.58,8.248
32.584,8.328
32.588,8.332
32.592,8.34
32.596,8.312
32.6,8.308
32.604,8.332
32.608,8.356
32.612,8.288
32.616,8.252
32.62,8.312
32.624,8.34
32.628,8.28
32.632,8.26
32.636,8.32
32.64,8.328
32.644,8.264
32.648,8.24
32.652,8.264
32.656,8.332
32.66,8.284
32.664,8.236
32.668,8.28
32.672,8.312
32.676,8.264
32.68,8.212
32.684,8.268
32.688,8.296
32.692,8.3
32.696,8.232
32.7,8.24
32.704,8.308
32.708,8.288
32.712,8.228
32.716,8.228
32.72,8.272
32.724,8.288
32.728,8.248
32.732,8.204
32.736,8.256
32.74,8.264
32.744,8.228
32.748,8.172
32.752,8.212
32.756,8.252
32.76,8.216
32.764,8.172
32.768,8.216
32.772,8.244
32.776,8.216
32.78,8.152
32.784,8.224
32.788,8.26
32.792,8.244
32.796,8.172
32.8,8.192
32.804,8.22
32.808,8.244
32.812,8.188
32.816,8.18
32.82,8.224
32.824,8.236
32.828,8.184
32.832,8.148
32.836,8.216
32.84,8.192
32.844,8.204
32.848,8.148
32.852,8.208
32.856,8.252
32.86,8.24
32.864,8.196
32.868,8.252
32.872,8.324
32.876,8.272
32.88,8.216
32.884,8.264
32.888,8.352
32.892,8.312
32.896,8.316
32.9,8.304
32.904,8.4
32.908,8.364
32.912,8.344
32.916,8.288
32.92,8.36
32.924,8.296
32.928,8.268
32.932,8.196
32.936,8.224
32.94,8.188
32.944,8.164
32.948,8.092
32.952,8.136
32.956,8.188
32.96,8.112
32.964,8.104
32.968,8.144
32.972,8.2
32.976,8.08
32.98,8.092
32.984,8.112
32.988,8.18
32.992,8.08
32.996,8.096
33,8.116
33.004,8.172
33.008,8.1
33.012,8.088
33.016,8.084
33.02,8.08
33.024,8.172
33.028,8.232
33.032,8.66
33.036,9.452
33.04,9.684
33.044,9.492
33.048,9.056
33.052,8.528
33.056,8.356
33.06,8.192
33.064,8.092
33.068,8.072
33.072,8.132
33.076,8.008
33.08,8.064
33.084,8.164
33.088,8.24
33.092,8.196
33.096,8.116
33.1,8.232
33.104,8.256
33.108,8.188
33.112,8.14
33.116,8.212
33.12,8.272
33.124,8.272
33.128,8.168
33.132,8.228
33.136,8.284
33.14,8.296
33.144,8.188
33.148,8.224
33.152,8.292
33.156,8.384
33.16,8.236
33.164,8.276
33.168,8.34
33.172,8.376
33.176,8.288
33.18,8.272
33.184,8.328
33.188,8.388
33.192,8.324
33.196,8.34
33.2,8.38
33.204,8.404
33.208,8.424
33.212,8.372
33.216,8.388
33.22,8.468
33.224,8.484
33.228,8.448
33.232,8.42
33.236,8.528
33.24,8.568
33.244,8.544
33.248,8.496
33.252,8.616
33.256,8.716
33.26,8.656
33.264,8.6
33.268,8.716
33.272,8.804
33.276,8.772
33.28,8.736
33.284,8.812
33.288,8.932
33.292,8.896
33.296,8.816
33.3,8.836
33.304,8.908
33.308,8.884
33.312,8.792
33.316,8.768
33.32,8.828
33.324,8.804
33.328,8.676
33.332,8.572
33.336,8.608
33.34,8.612
33.344,8.46
33.348,8.352
33.352,8.392
33.356,8.424
33.36,8.316
33.364,8.212
33.368,8.252
33.372,8.284
33.376,8.2
33.38,8.116
33.384,8.156
33.388,8.228
33.392,8.176
33.396,8.104
33.4,8.116
33.404,8.18
33.408,8.18
33.412,8.096
33.416,8.06
33.42,8.16
33.424,8.18
33.428,8.136
33.432,8.068
33.436,8.164
33.44,8.188
33.444,8.152
33.448,8.072
33.452,8.164
33.456,8.212
33.46,8.128
33.464,8.092
33.468,8.176
33.472,8.24
33.476,8.152
33.48,8.112
33.484,8.184
33.488,8.236
33.492,8.168
33.496,8.128
33.5,8.176
33.504,8.232
33.508,8.192
33.512,8.092
33.516,8.128
33.52,8.204
33.524,8.212
33.528,8.124
33.532,8.128
33.536,8.188
33.54,8.212
33.544,8.108
33.548,8.108
33.552,8.184
33.556,8.204
33.56,8.132
33.564,8.068
33.568,8.184
33.572,8.216
33.576,8.148
33.58,8.056
33.584,8.156
33.588,8.2
33.592,8.156
33.596,8.084
33.6,8.116
33.604,8.192
33.608,8.14
33.612,8.076
33.616,8.104
33.62,8.168
33.624,8.16
33.628,8.1
33.632,8.088
33.636,8.144
33.64,8.184
33.644,8.1
33.648,8.088
33.652,8.148
33.656,8.188
33.66,8.108
33.664,8.072
33.668,8.152
33.672,8.196
33.676,8.128
33.68,8.064
33.684,8.132
33.688,8.168
33.692,8.124
33.696,8.076
33.7,8.132
33.704,8.18
33.708,8.156
33.712,8.096
33.716,8.124
33.72,8.208
33.724,8.252
33.728,8.2
33.732,8.208
33.736,8.296
33.74,8.296
33.744,8.24
33.748,8.208
33.752,8.308
33.756,8.352
33.76,8.336
33.764,8.296
33.768,8.336
33.772,8.376
33.776,8.288
33.78,8.212
33.784,8.252
33.788,8.288
33.792,8.196
33.796,8.088
33.8,8.108
33.804,8.168
33.808,8.124
33.812,8.08
33.816,8.068
33.82,8.152
33.824,8.152
33.828,8.092
33.832,8.08
33.836,8.18
33.84,8.176
33.844,8.084
33.848,8.04
33.852,8.136
33.856,8.18
33.86,8.072
33.864,8.084
33.868,8.152
33.872,8.184
33.876,8.1
33.88,8.116
33.884,8.252
33.888,8.64
33.892,9.228
33.896,9.712
33.9,9.74
33.904,9.484
33.908,8.84
33.912,8.44
33.916,8.276
33.92,8.196
33.924,8.064
33.928,8.048
33.932,7.984
33.936,8.12
33.94,8.204
33.944,8.216
33.948,8.168
33.952,8.248
33.956,8.288
33.96,8.248
33.964,8.184
33.968,8.264
33.972,8.332
33.976,8.256
33.98,8.216
33.984,8.256
33.988,8.34
33.992,8.324
33.996,8.292
34,8.3
34.004,8.36
34.008,8.332
34.012,8.296
34.016,8.3
34.02,8.384
34.024,8.38
34.028,8.34
34.032,8.32
34.036,8.416
34.04,8.44
34.044,8.404
34.048,8.364
34.052,8.432
34.056,8.504
34.06,8.46
34.064,8.384
34.068,8.484
34.072,8.54
34.076,8.508
34.08,8.456
34.084,8.532
34.088,8.596
34.092,8.564
34.096,8.536
34.1,8.588
34.104,8.716
34.108,8.688
34.112,8.688
34.116,8.68
34.12,8.788
34.124,8.82
34.128,8.816
34.132,8.78
34.136,8.884
34.14,8.936
34.144,8.904
34.148,8.84
34.152,8.956
34.156,9.004
34.16,8.964
34.164,8.896
34.168,8.952
34.172,8.98
34.176,8.884
34.18,8.776
34.184,8.784
34.188,8.772
34.192,8.664
34.196,8.56
34.2,8.5
34.204,8.552
34.208,8.46
34.212,8.376
34.216,8.32
34.22,8.388
34.224,8.356
34.228,8.288
34.232,8.22
34.236,8.284
34.24,8.292
34.244,8.228
34.248,8.168
34.252,8.252
34.256,8.3
34.26,8.212
34.264,8.156
34.268,8.212
34.272,8.276
34.276,8.212
34.28,8.168
34.284,8.204
34.288,8.28
34.292,8.22
34.296,8.172
34.3,8.192
34.304,8.284
34.308,8.26
34.312,8.2
34.316,8.196
34.32,8.248
34.324,8.236
34.328,8.216
34.332,8.148
34.336,8.244
34.34,8.284
34.344,8.216
34.348,8.172
34.352,8.26
34.356,8.304
34.36,8.248
34.364,8.188
34.368,8.244
34.372,8.3
34.376,8.244
34.38,8.188
34.384,8.236
34.388,8.3
34.392,8.26
34.396,8.212
34.4,8.228
34.404,8.304
34.408,8.264
34.412,8.212
34.416,8.22
34.42,8.284
34.424,8.24
34.428,8.212
34.432,8.172
34.436,8.272
34.44,8.28
34.444,8.228
34.448,8.144
34.452,8.244
34.456,8.28
34.46,8.196
34.464,8.148
34.468,8.224
34.472,8.304
34.476,8.22
34.48,8.144
34.484,8.216
34.488,8.284
34.492,8.244
34.496,8.16
34.5,8.18
34.504,8.276
34.508,8.232
34.512,8.18
34.516,8.176
34.52,8.244
34.524,8.232
34.528,8.196
34.532,8.172
34.536,8.26
34.54,8.276
34.544,8.204
34.548,8.14
34.552,8.232
34.556,8.276
34.56,8.232
34.564,8.164
34.568,8.216
34.572,8.284
34.576,8.22
34.58,8.152
34.584,8.2
34.588,8.284
34.592,8.252
34.596,8.216
34.6,8.272
34.604,8.364
34.608,8.324
34.612,8.316
34.616,8.284
34.62,8.372
34.624,8.384
34.628,8.344
34.632,8.32
34.636,8.416
34.64,8.464
34.644,8.392
34.648,8.312
34.652,8.38
34.656,8.42
34.66,8.344
34.664,8.26
34.668,8.324
34.672,8.32
34.676,8.24
34.68,8.184
34.684,8.212
34.688,8.252
34.692,8.2
34.696,8.152
34.7,8.18
34.704,8.24
34.708,8.208
34.712,8.164
34.716,8.148
34.72,8.224
34.724,8.252
34.728,8.212
34.732,8.18
34.736,8.244
34.74,8.272
34.744,8.2
34.748,8.2
34.752,8.276
34.756,8.336
34.76,8.332
34.764,8.372
34.768,8.768
34.772,9.488
34.776,9.928
34.78,9.892
34.784,9.624
34.788,9.096
34.792,8.596
34.796,8.352
34.8,8.22
34.804,8.208
34.808,8.176
34.812,8.064
34.816,8.116
34.82,8.32
34.824,8.364
34.828,8.324
34.832,8.292
34.836,8.388
34.84,8.392
34.844,8.32
34.848,8.268
34.852,8.376
34.856,8.432
34.86,8.356
34.864,8.328
34.868,8.388
34.872,8.444
34.876,8.392
34.88,8.344
34.884,8.384
34.888,8.484
34.892,8.444
34.896,8.396
34.9,8.408
34.904,8.496
34.908,8.46
34.912,8.44
34.916,8.428
34.92,8.512
34.924,8.516
34.928,8.472
34.932,8.468
34.936,8.544
34.94,8.552
34.944,8.512
34.948,8.492
34.952,8.576
34.956,8.632
34.96,8.58
34.964,8.548
34.968,8.632
34.972,8.736
34.976,8.68
34.98,8.66
34.984,8.72
34.988,8.808
34.992,8.824
34.996,8.788
35,8.812
35.004,8.932
35.008,8.936
35.012,8.912
35.016,8.928
35.02,9.032
35.024,9.048
35.028,9.012
35.032,8.964
35.036,9.116
35.04,9.124
35.044,9.068
35.048,8.952
35.052,9.08
35.056,9.08
35.06,8.968
35.064,8.816
35.068,8.908
35.072,8.896
35.076,8.74
35.08,8.588
35.084,8.652
35.088,8.628
35.092,8.54
35.096,8.416
35.1,8.476
35.104,8.508
35.108,8.444
35.112,8.36
35.116,8.352
35.12,8.384
35.124,8.364
35.128,8.288
35.132,8.276
35.136,8.38
35.14,8.348
35.144,8.308
35.148,8.208
35.152,8.328
35.156,8.364
35.16,8.276
35.164,8.188
35.168,8.292
35.172,8.368
35.176,8.292
35.18,8.204
35.184,8.32
35.188,8.344
35.192,8.308
35.196,8.232
35.2,8.328
35.204,8.372
35.208,8.352
35.212,8.248
35.216,8.292
35.22,8.352
35.224,8.376
35.228,8.292
35.232,8.292
35.236,8.4
35.24,8.364
35.244,8.3
35.248,8.228
35.252,8.388
35.256,8.396
35.26,8.332
35.264,8.244
35.268,8.396
35.272,8.432
35.276,8.348
35.28,8.26
35.284,8.388
35.288,8.392
35.292,8.36
35.296,8.248
35.3,8.364
35.304,8.4
35.308,8.376
35.312,8.272
35.316,8.328
35.32,8.384
35.324,8.36
35.328,8.272
35.332,8.3
35.336,8.392
35.34,8.38
35.344,8.284
35.348,8.244
35.352,8.376
35.356,8.368
35.36,8.312
35.364,8.236
35.368,8.38
35.372,8.396
35.376,8.332
35.38,8.244
35.384,8.396
35.388,8.4
35.392,8.336
35.396,8.22
35.4,8.344
35.404,8.44
35.408,8.376
35.412,8.248
35.416,8.312
35.42,8.384
35.424,8.384
35.428,8.276
35.432,8.296
35.436,8.396
35.44,8.4
35.444,8.28
35.448,8.24
35.452,8.38
35.456,8.368
35.46,8.324
35.464,8.244
35.468,8.408
35.472,8.416
35.476,8.3
35.48,8.224
35.484,8.34
35.488,8.408
35.492,8.352
35.496,8.232
35.5,8.364
35.504,8.412
35.508,8.384
35.512,8.272
35.516,8.384
35.52,8.464
35.524,8.452
35.528,8.364
35.532,8.372
35.536,8.524
35.54,8.528
35.544,8.416
35.548,8.404
35.552,8.524
35.556,8.552
35.56,8.468
35.564,8.384
35.568,8.504
35.572,8.504
35.576,8.392
35.58,8.304
35.584,8.396
35.588,8.392
35.592,8.348
35.596,8.224
35.6,8.312
35.604,8.328
35.608,8.296
35.612,8.188
35.616,8.252
35.62,8.32
35.624,8.332
35.628,8.224
35.632,8.248
35.636,8.336
35.64,8.316
35.644,8.236
35.648,8.228
35.652,8.328
35.656,8.352
35.66,8.26
35.664,8.312
35.668,8.388
35.672,8.392
35.676,8.404
35.68,8.444
35.684,8.956
35.688,9.736
35.692,9.908
35.696,9.824
35.7,9.464
35.704,8.976
35.708,8.544
35.712,8.32
35.716,8.244
35.72,8.272
35.724,8.252
35.728,8.152
35.732,8.296
35.736,8.388
35.74,8.48
35.744,8.356
35.748,8.376
35.752,8.412
35.756,8.472
35.76,8.348
35.764,8.356
35.768,8.432
35.772,8.488
35.776,8.432
35.78,8.352
35.784,8.444
35.788,8.516
35.792,8.452
35.796,8.352
35.8,8.488
35.804,8.516
35.808,8.508
35.812,8.416
35.816,8.484
35.82,8.508
35.824,8.508
35.828,8.416
35.832,8.488
35.836,8.572
35.84,8.576
35.844,8.512
35.848,8.516
35.852,8.584
35.856,8.6
35.86,8.548
35.864,8.528
35.868,8.62
35.872,8.664
35.876,8.628
35.88,8.604
35.884,8.668
35.888,8.744
35.892,8.708
35.896,8.652
35.9,8.756
35.904,8.816
35.908,8.844
35.912,8.768
35.916,8.86
35.92,8.928
35.924,8.948
35.928,8.876
35.932,8.948
35.936,9.016
35.94,9.064
35.944,8.96
35.948,8.984
35.952,9.056
35.956,9.108
35.96,9.016
35.964,8.996
35.968,9.036
35.972,9.036
35.976,8.924
35.98,8.828
35.984,8.84
35.988,8.804
35.992,8.688
35.996,8.556
36,8.604
36.004,8.608
36.008,8.54
36.012,8.372
36.016,8.416
36.02,8.436
36.024,8.424
36.028,8.3
36.032,8.328
36.036,8.36
36.04,8.392
36.044,8.252
36.048,8.264
36.052,8.312
36.056,8.32
36.06,8.26
36.064,8.22
36.068,8.312
36.072,8.328
36.076,8.264
36.08,8.232
36.084,8.264
36.088,8.332
36.092,8.28
36.096,8.2
36.1,8.28
36.104,8.3
36.108,8.28
36.112,8.208
36.116,8.256
36.12,8.3
36.124,8.308
36.128,8.22
36.132,8.236
36.136,8.304
36.14,8.34
36.144,8.236
36.148,8.236
36.152,8.284
36.156,8.34
36.16,8.28
36.164,8.244
36.168,8.304
36.172,8.368
36.176,8.292
36.18,8.264
36.184,8.28
36.188,8.316
36.192,8.26
36.196,8.248
36.2,8.28
36.204,8.324
36.208,8.28
36.212,8.224
36.216,8.236
36.22,8.3
36.224,8.296
36.228,8.216
36.232,8.248
36.236,8.276
36.24,8.328
36.244,8.208
36.248,8.224
36.252,8.28
36.256,8.316
36.26,8.2
36.264,8.228
36.268,8.296
36.272,8.316
36.276,8.224
36.28,8.204
36.284,8.256
36.288,8.296
36.292,8.252
36.296,8.192
36.3,8.212
36.304,8.292
36.308,8.264
36.312,8.16
36.316,8.196
36.32,8.248
36.324,8.264
36.328,8.168
36.332,8.2
36.336,8.256
36.34,8.288
36.344,8.152
36.348,8.192
36.352,8.224
36.356,8.268
36.36,8.188
36.364,8.172
36.368,8.22
36.372,8.28
36.376,8.2
36.38,8.2
36.384,8.204
36.388,8.248
36.392,8.224
36.396,8.172
36.4,8.208
36.404,8.252
36.408,8.24
36.412,8.152
36.416,8.184
36.42,8.232
36.424,8.26
36.428,8.156
36.432,8.188
36.436,8.224
36.44,8.272
36.444,8.14
36.448,8.18
36.452,8.22
36.456,8.268
36.46,8.156
36.464,8.176
36.468,8.22
36.472,8.272
36.476,8.184
36.48,8.168
36.484,8.204
36.488,8.264
36.492,8.216
36.496,8.18
36.5,8.212
36.504,8.284
36.508,8.272
36.512,8.232
36.516,8.256
36.52,8.336
36.524,8.328
36.528,8.252
36.532,8.284
36.536,8.36
36.54,8.4
36.544,8.292
36.548,8.32
36.552,8.344
36.556,8.368
36.56,8.244
36.564,8.22
36.568,8.264
36.572,8.264
36.576,8.18
36.58,8.128
36.584,8.164
36.588,8.18
36.592,8.132
36.596,8.052
36.6,8.12
36.604,8.172
36.608,8.16
36.612,8.076
36.616,8.104
36.62,8.14
36.624,8.164
36.628,8.068
36.632,8.076
36.636,8.136
36.64,8.188
36.644,8.08
36.648,8.1
36.652,8.136
36.656,8.16
36.66,8.044
36.664,8.128
36.668,8.296
36.672,8.732
36.676,9.432
36.68,9.684
36.684,9.664
36.688,9.24
36.692,8.624
36.696,8.292
36.7,8.268
36.704,8.18
36.708,8.06
36.712,7.964
36.716,8
36.72,8.112
36.724,8.196
36.728,8.124
36.732,8.184
36.736,8.216
36.74,8.284
36.744,8.156
36.748,8.176
36.752,8.216
36.756,8.284
36.76,8.164
36.764,8.212
36.768,8.244
36.772,8.324
36.776,8.248
36.78,8.212
36.784,8.252
36.788,8.308
36.792,8.272
36.796,8.204
36.8,8.252
36.804,8.332
36.808,8.32
36.812,8.236
36.816,8.292
36.82,8.32
36.824,8.364
36.828,8.264
36.832,8.292
36.836,8.38
36.84,8.412
36.844,8.34
36.848,8.348
36.852,8.392
36.856,8.464
36.86,8.4
36.864,8.404
36.868,8.456
36.872,8.54
36.876,8.476
36.88,8.46
36.884,8.528
36.888,8.604
36.892,8.584
36.896,8.556
36.9,8.608
36.904,8.728
36.908,8.74
36.912,8.672
36.916,8.716
36.92,8.808
36.924,8.808
36.928,8.752
36.932,8.796
36.936,8.88
36.94,8.908
36.944,8.8
36.948,8.796
36.952,8.856
36.956,8.872
36.96,8.764
36.964,8.696
36.968,8.736
36.972,8.728
36.976,8.6
36.98,8.508
36.984,8.496
36.988,8.508
36.992,8.428
36.996,8.332
37,8.3
37.004,8.348
37.008,8.336
37.012,8.224
37.016,8.22
37.02,8.256
37.024,8.26
37.028,8.152
37.032,8.148
37.036,8.224
37.04,8.236
37.044,8.096
37.048,8.12
37.052,8.192
37.056,8.24
37.06,8.136
37.064,8.116
37.068,8.16
37.072,8.236
37.076,8.168
37.08,8.128
37.084,8.164
37.088,8.204
37.092,8.18
37.096,8.108
37.1,8.156
37.104,8.232
37.108,8.204
37.112,8.136
37.116,8.148
37.12,8.208
37.124,8.232
37.128,8.168
37.132,8.156
37.136,8.224
37.14,8.268
37.144,8.164
37.148,8.14
37.152,8.192
37.156,8.256
37.16,8.176
37.164,8.168
37.168,8.212
37.172,8.288
37.176,8.188
37.18,8.144
37.184,8.212
37.188,8.24
37.192,8.192
37.196,8.12
37.2,8.18
37.204,8.212
37.208,8.212
37.212,8.128
37.216,8.128
37.22,8.188
37.224,8.2
37.228,8.112
37.232,8.124
37.236,8.2
37.24,8.256
37.244,8.144
37.248,8.14
37.252,8.192
37.256,8.24
37.26,8.14
37.264,8.12
37.268,8.196
37.272,8.252
37.276,8.168
37.28,8.124
37.284,8.172
37.288,8.224
37.292,8.168
37.296,8.1
37.3,8.148
37.304,8.232
37.308,8.212
37.312,8.132
37.316,8.14
37.32,8.212
37.324,8.212
37.328,8.136
37.332,8.16
37.336,8.228
37.34,8.236
37.344,8.152
37.348,8.136
37.352,8.204
37.356,8.252
37.36,8.148
37.364,8.132
37.368,8.192
37.372,8.248
37.376,8.188
37.38,8.124
37.384,8.176
37.388,8.232
37.392,8.18
37.396,8.144
37.4,8.164
37.404,8.224
37.408,8.188
37.412,8.132
37.416,8.16
37.42,8.228
37.424,8.224
37.428,8.144
37.432,8.16
37.436,8.22
37.44,8.24
37.444,8.168
37.448,8.164
37.452,8.224
37.456,8.292
37.46,8.232
37.464,8.2
37.468,8.3
37.472,8.376
37.476,8.316
37.48,8.264
37.484,8.368
37.488,8.408
37.492,8.376
37.496,8.324
37.5,8.376
37.504,8.424
37.508,8.4
37.512,8.312
37.516,8.34
37.52,8.316
37.524,8.3
37.528,8.204
37.532,8.164
37.536,8.236
37.54,8.292
37.544,8.164
37.548,8.132
37.552,8.184
37.556,8.232
37.56,8.136
37.564,8.12
37.568,8.168
37.572,8.252
37.576,8.172
37.58,8.128
37.584,8.156
37.588,8.216
37.592,8.172
37.596,8.12
37.6,8.172
37.604,8.232
37.608,8.24
37.612,8.144
37.616,8.168
37.62,8.304
37.624,8.388
37.628,8.64
37.632,9.28
37.636,9.908
37.64,10
37.644,9.632
37.648,9
37.652,8.616
37.656,8.452
37.66,8.196
37.664,8.04
37.668,8.096
37.672,8.124
37.676,8.128
37.68,8.188
37.684,8.28
37.688,8.328
37.692,8.288
37.696,8.228
37.7,8.288
37.704,8.348
37.708,8.336
37.712,8.26
37.716,8.272
37.72,8.356
37.724,8.34
37.728,8.276
37.732,8.292
37.736,8.38
37.74,8.416
37.744,8.336
37.748,8.292
37.752,8.388
37.756,8.416
37.76,8.336
37.764,8.34
37.768,8.404
37.772,8.46
37.776,8.384
37.78,8.38
37.784,8.444
37.788,8.468
37.792,8.448
37.796,8.396
37.8,8.46
37.804,8.54
37.808,8.54
37.812,8.48
37.816,8.5
37.82,8.58
37.824,8.616
37.828,8.528
37.832,8.548
37.836,8.64
37.84,8.708
37.844,8.628
37.848,8.628
37.852,8.724
37.856,8.812
37.86,8.736
37.864,8.76
37.868,8.836
37.872,8.924
37.876,8.88
37.88,8.824
37.884,8.924
37.888,9.004
37.892,8.964
37.896,8.924
37.9,8.968
37.904,9.024
37.908,9.036
37.912,8.932
37.916,8.92
37.92,8.932
37.924,8.896
37.928,8.772
37.932,8.696
37.936,8.708
37.94,8.716
37.944,8.552
37.948,8.492
37.952,8.504
37.956,8.512
37.96,8.404
37.964,8.352
37.968,8.388
37.972,8.448
37.976,8.32
37.98,8.276
37.984,8.316
37.988,8.388
37.992,8.3
37.996,8.228
38,8.276
38.004,8.332
38.008,8.312
38.012,8.228
38.016,8.252
38.02,8.296
38.024,8.284
38.028,8.208
38.032,8.192
38.036,8.276
38.04,8.292
38.044,8.212
38.048,8.196
38.052,8.28
38.056,8.304
38.06,8.228
38.064,8.196
38.068,8.288
38.072,8.356
38.076,8.272
38.08,8.22
38.084,8.264
38.088,8.332
38.092,8.272
38.096,8.24
38.1,8.312
38.104,8.36
38.108,8.336
38.112,8.252
38.116,8.292
38.12,8.344
38.124,8.36
38.128,8.26
38.132,8.28
38.136,8.336
38.14,8.376
38.144,8.272
38.148,8.244
38.152,8.34
38.156,8.376
38.16,8.3
38.164,8.264
38.168,8.304
38.172,8.38
38.176,8.308
38.18,8.272
38.184,8.316
38.188,8.364
38.192,8.296
38.196,8.24
38.2,8.28
38.204,8.364
38.208,8.336
38.212,8.248
38.216,8.26
38.22,8.324
38.224,8.344
38.228,8.264
38.232,8.264
38.236,8.324
38.24,8.364
38.244,8.288
38.248,8.244
38.252,8.312
38.256,8.34
38.26,8.268
38.264,8.232
38.268,8.3
38.272,8.356
38.276,8.292
38.28,8.256
38.284,8.304
38.288,8.344
38.292,8.284
38.296,8.232
38.3,8.292
38.304,8.332
38.308,8.344
38.312,8.232
38.316,8.28
38.32,8.356
38.324,8.344
38.328,8.244
38.332,8.236
38.336,8.316
38.34,8.364
38.344,8.284
38.348,8.236
38.352,8.324
38.356,8.36
38.36,8.288
38.364,8.244
38.368,8.336
38.372,8.38
38.376,8.292
38.38,8.264
38.384,8.324
38.388,8.356
38.392,8.304
38.396,8.228
38.4,8.284
38.404,8.348
38.408,8.328
38.412,8.26
38.416,8.276
38.42,8.372
38.424,8.4
38.428,8.296
38.432,8.328
38.436,8.428
38.44,8.46
38.444,8.368
38.448,8.364
38.452,8.484
38.456,8.548
38.46,8.436
38.464,8.404
38.468,8.512
38.472,8.548
38.476,8.432
38.48,8.356
38.484,8.4
38.488,8.432
38.492,8.348
38.496,8.26
38.5,8.26
38.504,8.332
38.508,8.284
38.512,8.2
38.516,8.188
38.52,8.264
38.524,8.264
38.528,8.192
38.532,8.172
38.536,8.256
38.54,8.304
38.544,8.204
38.548,8.192
38.552,8.264
38.556,8.284
38.56,8.244
38.564,8.208
38.568,8.292
38.572,8.36
38.576,8.288
38.58,8.24
38.584,8.312
38.588,8.42
38.592,8.484
38.596,8.84
38.6,9.616
38.604,9.984
38.608,9.964
38.612,9.456
38.616,8.888
38.62,8.556
38.624,8.42
38.628,8.208
38.632,8.152
38.636,8.228
38.64,8.216
38.644,8.228
38.648,8.272
38.652,8.372
38.656,8.388
38.66,8.356
38.664,8.3
38.668,8.396
38.672,8.436
38.676,8.364
38.68,8.328
38.684,8.38
38.688,8.444
38.692,8.388
38.696,8.34
38.7,8.408
38.704,8.472
38.708,8.432
38.712,8.368
38.716,8.368
38.72,8.448
38.724,8.492
38.728,8.424
38.732,8.408
38.736,8.496
38.74,8.56
38.744,8.46
38.748,8.448
38.752,8.536
38.756,8.568
38.76,8.476
38.764,8.464
38.768,8.564
38.772,8.644
38.776,8.568
38.78,8.52
38.784,8.592
38.788,8.652
38.792,8.616
38.796,8.592
38.8,8.644
38.804,8.732
38.808,8.72
38.812,8.672
38.816,8.736
38.82,8.816
38.824,8.852
38.828,8.8
38.832,8.804
38.836,8.96
38.84,9.008
38.844,8.924
38.848,8.928
38.852,9.02
38.856,9.072
38.86,9.012
38.864,8.984
38.868,9.084
38.872,9.132
38.876,9.012
38.88,8.948
38.884,8.968
38.888,8.96
38.892,8.852
38.896,8.776
38.9,8.744
38.904,8.788
38.908,8.7
38.912,8.576
38.916,8.532
38.92,8.552
38.924,8.52
38.928,8.424
38.932,8.356
38.936,8.432
38.94,8.44
38.944,8.352
38.948,8.28
38.952,8.372
38.956,8.384
38.96,8.292
38.964,8.252
38.968,8.316
38.972,8.384
38.976,8.28
38.98,8.24
38.984,8.28
38.988,8.34
38.992,8.268
38.996,8.188
39,8.232
39.004,8.332
39.008,8.32
39.012,8.248
39.016,8.264
39.02,8.316
39.024,8.308
39.028,8.24
39.032,8.24
39.036,8.308
39.04,8.356
39.044,8.268
39.048,8.252
39.052,8.316
39.056,8.34
39.06,8.268
39.064,8.244
39.068,8.34
39.072,8.364
39.076,8.292
39.08,8.236
39.084,8.304
39.088,8.372
39.092,8.3
39.096,8.228
39.1,8.28
39.104,8.332
39.108,8.316
39.112,8.232
39.116,8.232
39.12,8.32
39.124,8.3
39.128,8.228
39.132,8.2
39.136,8.292
39.14,8.352
39.144,8.26
39.148,8.228
39.152,8.284
39.156,8.336
39.16,8.232
39.164,8.2
39.168,8.284
39.172,8.348
39.176,8.256
39.18,8.22
39.184,8.288
39.188,8.328
39.192,8.252
39.196,8.196
39.2,8.256
39.204,8.324
39.208,8.268
39.212,8.212
39.216,8.208
39.22,8.272
39.224,8.288
