0,8.46
0.004,8.592
0.008,8.352
0.012,8.152
0.016,8.34
0.02,8.528
0.024,8.312
0.028,8.084
0.032,8.248
0.036,8.444
0.04,8.308
0.044,8.084
0.048,8.184
0.052,8.42
0.056,8.34
0.06,8.1
0.064,8.132
0.068,8.356
0.072,8.38
0.076,8.136
0.08,8.06
0.084,8.316
0.088,8.448
0.092,8.18
0.096,8.052
0.1,8.28
0.104,8.428
0.108,8.196
0.112,8.036
0.116,8.268
0.12,8.452
0.124,8.28
0.128,8.052
0.132,8.22
0.136,8.448
0.14,8.3
0.144,8.084
0.148,8.176
0.152,8.4
0.156,8.376
0.16,8.132
0.164,8.16
0.168,8.424
0.172,8.44
0.176,8.172
0.18,8.116
0.184,8.368
0.188,8.476
0.192,8.244
0.196,8.108
0.2,8.328
0.204,8.488
0.208,8.268
0.212,8.092
0.216,8.264
0.22,8.492
0.224,8.292
0.228,8.112
0.232,8.252
0.236,8.468
0.24,8.312
0.244,8.096
0.248,8.196
0.252,8.456
0.256,8.376
0.26,8.156
0.264,8.168
0.268,8.412
0.272,8.424
0.276,8.176
0.28,8.1
0.284,8.372
0.288,8.464
0.292,8.212
0.296,8.076
0.3,8.316
0.304,8.468
0.308,8.236
0.312,8.064
0.316,8.272
0.32,8.48
0.324,8.304
0.328,8.12
0.332,8.252
0.336,8.464
0.34,8.324
0.344,8.096
0.348,8.164
0.352,8.404
0.356,8.368
0.36,8.144
0.364,8.144
0.368,8.376
0.372,8.412
0.376,8.16
0.38,8.068
0.384,8.332
0.388,8.444
0.392,8.216
0.396,8.08
0.4,8.308
0.404,8.472
0.408,8.248
0.412,8.08
0.416,8.304
0.42,8.48
0.424,8.296
0.428,8.08
0.432,8.252
0.436,8.484
0.44,8.336
0.444,8.084
0.448,8.172
0.452,8.46
0.456,8.436
0.46,8.216
0.464,8.216
0.468,8.496
0.472,8.528
0.476,8.288
0.48,8.22
0.484,8.452
0.488,8.588
0.492,8.336
0.496,8.24
0.5,8.464
0.504,8.636
0.508,8.38
0.512,8.196
0.516,8.392
0.52,8.58
0.524,8.436
0.528,8.212
0.532,8.38
0.536,8.56
0.54,8.436
0.544,8.168
0.548,8.208
0.552,8.392
0.556,8.348
0.56,8.088
0.564,8.108
0.568,8.376
0.572,8.396
0.576,8.156
0.58,8.08
0.584,8.312
0.588,8.432
0.592,8.18
0.596,8.052
0.6,8.288
0.604,8.428
0.608,8.216
0.612,8.032
0.616,8.252
0.62,8.448
0.624,8.268
0.628,7.976
0.632,8.04
0.636,8.32
0.64,8.328
0.644,8.284
0.648,8.84
0.652,9.652
0.656,10.136
0.66,10.076
0.664,9.592
0.668,9.2
0.672,9.008
0.676,8.64
0.68,8.46
0.684,8.612
0.688,8.62
0.692,8.316
0.696,8.176
0.7,8.396
0.704,8.564
0.708,8.308
0.712,8.116
0.716,8.32
0.72,8.5
0.724,8.32
0.728,8.064
0.732,8.256
0.736,8.476
0.74,8.344
0.744,8.128
0.748,8.192
0.752,8.448
0.756,8.404
0.76,8.148
0.764,8.16
0.768,8.396
0.772,8.46
0.776,8.2
0.78,8.148
0.784,8.38
0.788,8.484
0.792,8.244
0.796,8.124
0.8,8.344
0.804,8.492
0.808,8.304
0.812,8.108
0.816,8.32
0.82,8.504
0.824,8.332
0.828,8.108
0.832,8.252
0.836,8.48
0.84,8.388
0.844,8.172
0.848,8.236
0.852,8.476
0.856,8.464
0.86,8.212
0.864,8.196
0.868,8.472
0.872,8.528
0.876,8.268
0.88,8.212
0.884,8.452
0.888,8.608
0.892,8.38
0.896,8.236
0.9,8.48
0.904,8.668
0.908,8.472
0.912,8.284
0.916,8.504
0.92,8.724
0.924,8.58
0.928,8.376
0.932,8.528
0.936,8.796
0.94,8.7
0.944,8.5
0.948,8.568
0.952,8.828
0.956,8.796
0.96,8.572
0.964,8.556
0.968,8.796
0.972,8.852
0.976,8.572
0.98,8.464
0.984,8.664
0.988,8.748
0.992,8.5
0.996,8.332
1,8.5
1.004,8.64
1.008,8.416
1.012,8.216
1.016,8.412
1.02,8.612
1.024,8.396
1.028,8.18
1.032,8.316
1.036,8.552
1.04,8.408
1.044,8.172
1.048,8.236
1.052,8.5
1.056,8.46
1.06,8.228
1.064,8.22
1.068,8.44
1.072,8.48
1.076,8.256
1.08,8.16
1.084,8.416
1.088,8.532
1.092,8.292
1.096,8.172
1.1,8.408
1.104,8.556
1.108,8.34
1.112,8.128
1.116,8.344
1.12,8.58
1.124,8.372
1.128,8.172
1.132,8.328
1.136,8.544
1.14,8.456
1.144,8.224
1.148,8.284
1.152,8.52
1.156,8.484
1.16,8.232
1.164,8.22
1.168,8.496
1.172,8.552
1.176,8.308
1.18,8.192
1.184,8.428
1.188,8.596
1.192,8.332
1.196,8.192
1.2,8.408
1.204,8.588
1.208,8.38
1.212,8.192
1.216,8.388
1.22,8.58
1.224,8.388
1.228,8.192
1.232,8.324
1.236,8.564
1.24,8.456
1.244,8.224
1.248,8.268
1.252,8.516
1.256,8.496
1.26,8.244
1.264,8.264
1.268,8.492
1.272,8.548
1.276,8.3
1.28,8.204
1.284,8.416
1.288,8.532
1.292,8.336
1.296,8.192
1.3,8.424
1.304,8.572
1.308,8.368
1.312,8.176
1.316,8.34
1.32,8.564
1.324,8.428
1.328,8.188
1.332,8.328
1.336,8.568
1.34,8.428
1.344,8.164
1.348,8.268
1.352,8.508
1.356,8.496
1.36,8.248
1.364,8.228
1.368,8.48
1.372,8.532
1.376,8.26
1.38,8.188
1.384,8.412
1.388,8.536
1.392,8.316
1.396,8.208
1.4,8.416
1.404,8.576
1.408,8.344
1.412,8.164
1.416,8.324
1.42,8.568
1.424,8.404
1.428,8.192
1.432,8.336
1.436,8.548
1.44,8.436
1.444,8.24
1.448,8.324
1.452,8.568
1.456,8.564
1.46,8.336
1.464,8.352
1.468,8.6
1.472,8.656
1.476,8.412
1.48,8.34
1.484,8.588
1.488,8.716
1.492,8.484
1.496,8.312
1.5,8.568
1.504,8.724
1.508,8.508
1.512,8.288
1.516,8.496
1.52,8.692
1.524,8.516
1.528,8.28
1.532,8.416
1.536,8.624
1.54,8.496
1.544,8.228
1.548,8.264
1.552,8.48
1.556,8.488
1.56,8.244
1.564,8.188
1.568,8.452
1.572,8.524
1.576,8.288
1.58,8.188
1.584,8.392
1.588,8.52
1.592,8.28
1.596,8.14
1.6,8.384
1.604,8.576
1.608,8.344
1.612,8.136
1.616,8.328
1.62,8.516
1.624,8.252
1.628,7.992
1.632,8.188
1.636,8.568
1.64,8.812
1.644,9.124
1.648,9.684
1.652,10.356
1.656,10.232
1.66,9.324
1.664,8.852
1.668,8.952
1.672,8.928
1.676,8.612
1.68,8.444
1.684,8.588
1.688,8.652
1.692,8.388
1.696,8.24
1.7,8.472
1.704,8.652
1.708,8.396
1.712,8.196
1.716,8.4
1.72,8.592
1.724,8.448
1.728,8.22
1.732,8.336
1.736,8.556
1.74,8.48
1.744,8.22
1.748,8.284
1.752,8.556
1.756,8.516
1.76,8.26
1.764,8.232
1.768,8.492
1.772,8.572
1.776,8.316
1.78,8.2
1.784,8.472
1.788,8.6
1.792,8.36
1.796,8.212
1.8,8.44
1.804,8.612
1.808,8.388
1.812,8.204
1.816,8.412
1.82,8.62
1.824,8.464
1.828,8.2
1.832,8.372
1.836,8.588
1.84,8.528
1.844,8.292
1.848,8.352
1.852,8.58
1.856,8.58
1.86,8.324
1.864,8.304
1.868,8.564
1.872,8.652
1.876,8.416
1.88,8.316
1.884,8.584
1.888,8.72
1.892,8.496
1.896,8.372
1.9,8.612
1.904,8.78
1.908,8.6
1.912,8.448
1.916,8.628
1.92,8.888
1.924,8.748
1.928,8.528
1.932,8.64
1.936,8.912
1.94,8.836
1.944,8.58
1.948,8.64
1.952,8.924
1.956,8.924
1.96,8.656
1.964,8.596
1.968,8.844
1.972,8.86
1.976,8.62
1.98,8.5
1.984,8.704
1.988,8.804
1.992,8.552
1.996,8.344
2,8.548
2.004,8.716
2.008,8.48
2.012,8.26
2.016,8.444
2.02,8.636
2.024,8.508
2.028,8.256
2.032,8.36
2.036,8.616
2.04,8.516
2.044,8.268
2.048,8.324
2.052,8.564
2.056,8.576
2.06,8.336
2.064,8.264
2.068,8.52
2.072,8.58
2.076,8.348
2.08,8.244
2.084,8.484
2.088,8.616
2.092,8.396
2.096,8.224
2.1,8.436
2.104,8.628
2.108,8.448
2.112,8.248
2.116,8.416
2.12,8.616
2.124,8.5
2.128,8.252
2.132,8.38
2.136,8.604
2.14,8.524
2.144,8.296
2.148,8.34
2.152,8.6
2.156,8.584
2.16,8.332
2.164,8.3
2.168,8.548
2.172,8.636
2.176,8.392
2.18,8.268
2.184,8.528
2.188,8.656
2.192,8.404
2.196,8.26
2.2,8.488
2.204,8.684
2.208,8.456
2.212,8.248
2.216,8.432
2.22,8.64
2.224,8.488
2.228,8.272
2.232,8.408
2.236,8.628
2.24,8.54
2.244,8.3
2.248,8.348
2.252,8.572
2.256,8.608
2.26,8.324
2.264,8.308
2.268,8.544
2.272,8.612
2.276,8.348
2.28,8.276
2.284,8.492
2.288,8.656
2.292,8.412
2.296,8.24
2.3,8.456
2.304,8.632
2.308,8.44
2.312,8.24
2.316,8.428
2.32,8.624
2.324,8.492
2.328,8.276
2.332,8.388
2.336,8.624
2.34,8.54
2.344,8.272
2.348,8.328
2.352,8.556
2.356,8.576
2.36,8.336
2.364,8.312
2.368,8.548
2.372,8.62
2.376,8.336
2.38,8.232
2.384,8.476
2.388,8.628
2.392,8.392
2.396,8.24
2.4,8.476
2.404,8.636
2.408,8.428
2.412,8.244
2.416,8.416
2.42,8.648
2.424,8.492
2.428,8.32
2.432,8.448
2.436,8.692
2.44,8.624
2.444,8.376
2.448,8.408
2.452,8.68
2.456,8.676
2.46,8.464
2.464,8.436
2.468,8.692
2.472,8.78
2.476,8.544
2.48,8.416
2.484,8.648
2.488,8.764
2.492,8.52
2.496,8.348
2.5,8.6
2.504,8.748
2.508,8.548
2.512,8.336
2.516,8.48
2.52,8.66
2.524,8.464
2.528,8.236
2.532,8.332
2.536,8.556
2.54,8.488
2.544,8.26
2.548,8.3
2.552,8.524
2.556,8.52
2.56,8.272
2.564,8.252
2.568,8.488
2.572,8.552
2.576,8.332
2.58,8.22
2.584,8.444
2.588,8.596
2.592,8.368
2.596,8.188
2.6,8.4
2.604,8.5
2.608,8.24
2.612,8.124
2.616,8.428
2.62,8.924
2.624,9.264
2.628,9.584
2.632,10.188
2.636,10.284
2.64,9.564
2.644,8.844
2.648,8.784
2.652,8.936
2.656,8.88
2.66,8.54
2.664,8.416
2.668,8.596
2.672,8.676
2.676,8.432
2.68,8.328
2.684,8.532
2.688,8.66
2.692,8.444
2.696,8.264
2.7,8.444
2.704,8.64
2.708,8.44
2.712,8.236
2.716,8.396
2.72,8.656
2.724,8.468
2.728,8.232
2.732,8.36
2.736,8.592
2.74,8.548
2.744,8.272
2.748,8.324
2.752,8.572
2.756,8.588
2.76,8.312
2.764,8.256
2.768,8.532
2.772,8.62
2.776,8.348
2.78,8.272
2.784,8.492
2.788,8.676
2.792,8.428
2.796,8.26
2.8,8.464
2.804,8.672
2.808,8.464
2.812,8.276
2.816,8.448
2.82,8.668
2.824,8.524
2.828,8.328
2.832,8.416
2.836,8.656
2.84,8.608
2.844,8.384
2.848,8.416
2.852,8.672
2.856,8.68
2.86,8.46
2.864,8.376
2.868,8.66
2.872,8.752
2.876,8.528
2.88,8.456
2.884,8.7
2.888,8.844
2.892,8.604
2.896,8.472
2.9,8.688
2.904,8.928
2.908,8.716
2.912,8.548
2.916,8.736
2.92,8.956
2.924,8.844
2.928,8.656
2.932,8.716
2.936,8.968
2.94,8.912
2.944,8.668
2.948,8.672
2.952,8.9
2.956,8.872
2.96,8.616
2.964,8.532
2.968,8.744
2.972,8.792
2.976,8.516
2.98,8.396
2.984,8.596
2.988,8.74
2.992,8.484
2.996,8.3
3,8.508
3.004,8.704
3.008,8.476
3.012,8.264
3.016,8.44
3.02,8.668
3.024,8.536
3.028,8.28
3.032,8.4
3.036,8.628
3.04,8.564
3.044,8.296
3.048,8.36
3.052,8.596
3.056,8.6
3.06,8.356
3.064,8.276
3.068,8.548
3.072,8.656
3.076,8.38
3.08,8.264
3.084,8.52
3.088,8.684
3.092,8.456
3.096,8.296
3.1,8.488
3.104,8.676
3.108,8.468
3.112,8.28
3.116,8.464
3.12,8.68
3.124,8.532
3.128,8.308
3.132,8.404
3.136,8.656
3.14,8.604
3.144,8.36
3.148,8.388
3.152,8.612
3.156,8.628
3.16,8.4
3.164,8.356
3.168,8.584
3.172,8.688
3.176,8.424
3.18,8.32
3.184,8.552
3.188,8.704
3.192,8.46
3.196,8.328
3.2,8.516
3.204,8.7
3.208,8.516
3.212,8.288
3.216,8.444
3.22,8.676
3.224,8.532
3.228,8.328
3.232,8.428
3.236,8.656
3.24,8.604
3.244,8.332
3.248,8.356
3.252,8.58
3.256,8.62
3.26,8.364
3.264,8.312
3.268,8.564
3.272,8.656
3.276,8.432
3.28,8.308
3.284,8.532
3.288,8.672
3.292,8.436
3.296,8.248
3.3,8.484
3.304,8.696
3.308,8.492
3.312,8.28
3.316,8.436
3.32,8.672
3.324,8.54
3.328,8.288
3.332,8.4
3.336,8.644
3.34,8.592
3.344,8.308
3.348,8.32
3.352,8.572
3.356,8.616
3.36,8.372
3.364,8.32
3.368,8.58
3.372,8.668
3.376,8.396
3.38,8.284
3.384,8.532
3.388,8.684
3.392,8.432
3.396,8.272
3.4,8.512
3.404,8.7
3.408,8.504
3.412,8.324
3.416,8.5
3.42,8.736
3.424,8.62
3.428,8.396
3.432,8.504
3.436,8.736
3.44,8.696
3.444,8.464
3.448,8.492
3.452,8.756
3.456,8.788
3.46,8.556
3.464,8.468
3.468,8.708
3.472,8.812
3.476,8.524
3.48,8.352
3.484,8.628
3.488,8.812
3.492,8.548
3.496,8.332
3.5,8.544
3.504,8.712
3.508,8.512
3.512,8.264
3.516,8.4
3.52,8.636
3.524,8.492
3.528,8.276
3.532,8.344
3.536,8.58
3.54,8.532
3.544,8.284
3.548,8.304
3.552,8.592
3.556,8.608
3.56,8.336
3.564,8.272
3.568,8.488
3.572,8.612
3.576,8.38
3.58,8.268
3.584,8.492
3.588,8.592
3.592,8.244
3.596,8.092
3.6,8.42
3.604,8.84
3.608,9.112
3.612,9.428
3.616,10.112
3.62,10.508
3.624,9.808
3.628,8.96
3.632,8.86
3.636,9.068
3.64,8.916
3.644,8.572
3.648,8.492
3.652,8.708
3.656,8.684
3.66,8.42
3.664,8.328
3.668,8.604
3.672,8.68
3.676,8.448
3.68,8.296
3.684,8.544
3.688,8.692
3.692,8.452
3.696,8.26
3.7,8.488
3.704,8.672
3.708,8.48
3.712,8.268
3.716,8.424
3.72,8.66
3.724,8.524
3.728,8.3
3.732,8.368
3.736,8.616
3.74,8.584
3.744,8.34
3.748,8.344
3.752,8.592
3.756,8.62
3.76,8.392
3.764,8.32
3.768,8.544
3.772,8.652
3.776,8.416
3.78,8.292
3.784,8.536
3.788,8.728
3.792,8.5
3.796,8.312
3.8,8.528
3.804,8.688
3.808,8.516
3.812,8.344
3.816,8.484
3.82,8.744
3.824,8.604
3.828,8.364
3.832,8.456
3.836,8.696
3.84,8.668
3.844,8.44
3.848,8.448
3.852,8.704
3.856,8.776
3.86,8.548
3.864,8.504
3.868,8.744
3.872,8.84
3.876,8.612
3.88,8.528
3.884,8.756
3.888,8.952
3.892,8.748
3.896,8.612
3.9,8.836
3.904,9.04
3.908,8.848
3.912,8.64
3.916,8.804
3.92,9.036
3.924,8.912
3.928,8.672
3.932,8.74
3.936,8.96
3.94,8.916
3.944,8.62
3.948,8.58
3.952,8.844
3.956,8.84
3.96,8.56
3.964,8.448
3.968,8.676
3.972,8.748
3.976,8.48
3.98,8.348
3.984,8.58
3.988,8.752
3.992,8.508
3.996,8.312
4,8.544
4.004,8.724
4.008,8.536
4.012,8.304
4.016,8.464
4.02,8.68
4.024,8.556
4.028,8.32
4.032,8.432
4.036,8.688
4.04,8.612
4.044,8.388
4.048,8.376
4.052,8.608
4.056,8.648
4.06,8.424
4.064,8.348
4.068,8.584
4.072,8.7
4.076,8.44
4.08,8.316
4.084,8.54
4.088,8.708
4.092,8.476
4.096,8.332
4.1,8.532
4.104,8.708
4.108,8.52
4.112,8.324
4.116,8.5
4.12,8.728
4.124,8.596
4.128,8.364
4.132,8.444
4.136,8.676
4.14,8.648
4.144,8.4
4.148,8.404
4.152,8.64
4.156,8.704
4.16,8.452
4.164,8.392
4.168,8.62
4.172,8.712
4.176,8.476
4.18,8.344
4.184,8.58
4.188,8.712
4.192,8.504
4.196,8.308
4.2,8.532
4.204,8.752
4.208,8.556
4.212,8.32
4.216,8.464
4.22,8.72
4.224,8.6
4.228,8.344
4.232,8.416
4.236,8.692
4.24,8.664
4.244,8.388
4.248,8.376
4.252,8.612
4.256,8.66
4.26,8.408
4.264,8.348
4.268,8.592
4.272,8.716
4.276,8.448
4.28,8.316
4.284,8.54
4.288,8.712
4.292,8.472
4.296,8.296
4.3,8.508
4.304,8.716
4.308,8.52
4.312,8.324
4.316,8.468
4.32,8.696
4.324,8.556
4.328,8.316
4.332,8.4
4.336,8.656
4.34,8.644
4.344,8.372
4.348,8.36
4.352,8.6
4.356,8.644
4.36,8.4
4.364,8.336
4.368,8.564
4.372,8.684
4.376,8.444
4.38,8.324
4.384,8.532
4.388,8.692
4.392,8.488
4.396,8.328
4.4,8.512
4.404,8.712
4.408,8.524
4.412,8.332
4.416,8.516
4.42,8.692
4.424,8.66
4.428,8.436
4.432,8.528
4.436,8.764
4.44,8.736
4.444,8.516
4.448,8.484
4.452,8.756
4.456,8.82
4.46,8.548
4.464,8.472
4.468,8.712
4.472,8.828
4.476,8.564
4.48,8.42
4.484,8.676
4.488,8.856
4.492,8.608
4.496,8.324
4.5,8.524
4.504,8.736
4.508,8.496
4.512,8.296
4.516,8.416
4.52,8.628
4.524,8.512
4.528,8.3
4.532,8.368
4.536,8.616
4.54,8.56
4.544,8.336
4.548,8.324
4.552,8.576
4.556,8.608
4.56,8.34
4.564,8.296
4.568,8.536
4.572,8.632
4.576,8.376
4.58,8.292
4.584,8.504
4.588,8.608
4.592,8.276
4.596,8.08
4.6,8.416
4.604,8.812
4.608,9.032
4.612,9.36
4.616,10.028
4.62,10.556
4.624,9.936
4.628,9.048
4.632,8.868
4.636,9.072
4.64,8.956
4.644,8.616
4.648,8.532
4.652,8.692
4.656,8.724
4.66,8.46
4.664,8.364
4.668,8.584
4.672,8.692
4.676,8.456
4.68,8.284
4.684,8.532
4.688,8.704
4.692,8.472
4.696,8.284
4.7,8.484
4.704,8.66
4.708,8.492
4.712,8.252
4.716,8.444
4.72,8.692
4.724,8.548
4.728,8.316
4.732,8.376
4.736,8.608
4.74,8.588
4.744,8.328
4.748,8.336
4.752,8.6
4.756,8.668
4.76,8.416
4.764,8.316
4.768,8.564
4.772,8.668
4.776,8.44
4.78,8.296
4.784,8.516
4.788,8.684
4.792,8.456
4.796,8.3
4.8,8.532
4.804,8.704
4.808,8.536
4.812,8.316
4.816,8.46
4.82,8.72
4.824,8.596
4.828,8.38
4.832,8.464
4.836,8.688
4.84,8.648
4.844,8.416
4.848,8.428
4.852,8.72
4.856,8.76
4.86,8.54
4.864,8.452
4.868,8.716
4.872,8.876
4.876,8.636
4.88,8.496
4.884,8.76
4.888,8.96
4.892,8.76
4.896,8.6
4.9,8.796
4.904,8.996
4.908,8.832
4.912,8.632
4.916,8.796
4.92,9.02
4.924,8.936
4.928,8.7
4.932,8.716
4.936,8.936
4.94,8.864
4.944,8.612
4.948,8.564
4.952,8.772
4.956,8.816
4.96,8.532
4.964,8.424
4.968,8.656
4.972,8.76
4.976,8.464
4.98,8.312
4.984,8.52
4.988,8.688
4.992,8.46
4.996,8.272
5,8.444
5.004,8.66
5.008,8.504
5.012,8.276
5.016,8.42
5.02,8.64
5.024,8.524
5.028,8.292
5.032,8.368
5.036,8.616
5.04,8.576
5.044,8.324
5.048,8.324
5.052,8.556
5.056,8.616
5.06,8.344
5.064,8.28
5.068,8.528
5.072,8.628
5.076,8.396
5.08,8.252
5.084,8.488
5.088,8.656
5.092,8.436
5.096,8.256
5.1,8.448
5.104,8.648
5.108,8.488
5.112,8.232
5.116,8.396
5.12,8.632
5.124,8.524
5.128,8.276
5.132,8.368
5.136,8.62
5.14,8.572
5.144,8.304
5.148,8.324
5.152,8.572
5.156,8.616
5.16,8.368
5.164,8.292
5.168,8.516
5.172,8.66
5.176,8.392
5.18,8.248
5.184,8.48
5.188,8.676
5.192,8.424
5.196,8.244
5.2,8.448
5.204,8.636
5.208,8.48
5.212,8.26
5.216,8.376
5.22,8.6
5.224,8.5
5.228,8.276
5.232,8.336
5.236,8.592
5.24,8.56
5.244,8.288
5.248,8.26
5.252,8.548
5.256,8.576
5.26,8.324
5.264,8.244
5.268,8.468
5.272,8.628
5.276,8.372
5.28,8.22
5.284,8.436
5.288,8.596
5.292,8.396
5.296,8.224
5.3,8.4
5.304,8.604
5.308,8.444
5.312,8.228
5.316,8.356
5.32,8.6
5.324,8.488
5.328,8.252
5.332,8.336
5.336,8.544
5.34,8.524
5.344,8.304
5.348,8.264
5.352,8.512
5.356,8.564
5.36,8.32
5.364,8.24
5.368,8.476
5.372,8.604
5.376,8.344
5.38,8.228
5.384,8.456
5.388,8.628
5.392,8.452
5.396,8.26
5.4,8.44
5.404,8.676
5.408,8.544
5.412,8.296
5.416,8.456
5.42,8.668
5.424,8.6
5.428,8.404
5.432,8.456
5.436,8.676
5.44,8.664
5.444,8.42
5.448,8.4
5.452,8.644
5.456,8.72
5.46,8.428
5.464,8.364
5.468,8.548
5.472,8.652
5.476,8.404
5.48,8.176
5.484,8.392
5.488,8.548
5.492,8.34
5.496,8.144
5.5,8.348
5.504,8.532
5.508,8.372
5.512,8.14
5.516,8.268
5.52,8.52
5.524,8.416
5.528,8.156
5.532,8.208
5.536,8.444
5.54,8.444
5.544,8.22
5.548,8.192
5.552,8.444
5.556,8.484
5.56,8.18
5.564,8.016
5.568,8.22
5.572,8.384
5.576,8.336
5.58,8.6
5.584,9.396
5.588,10.172
5.592,10.46
5.596,10.076
5.6,9.436
5.604,9.212
5.608,8.984
5.612,8.692
5.616,8.668
5.62,8.8
5.624,8.592
5.628,8.3
5.632,8.364
5.636,8.572
5.64,8.536
5.644,8.268
5.648,8.22
5.652,8.472
5.656,8.536
5.66,8.284
5.664,8.176
5.668,8.42
5.672,8.524
5.676,8.296
5.68,8.176
5.684,8.36
5.688,8.544
5.692,8.352
5.696,8.124
5.7,8.344
5.704,8.548
5.708,8.376
5.712,8.164
5.716,8.276
5.72,8.508
5.724,8.456
5.728,8.212
5.732,8.288
5.736,8.496
5.74,8.476
5.744,8.216
5.748,8.196
5.752,8.476
5.756,8.544
5.76,8.3
5.764,8.16
5.768,8.424
5.772,8.54
5.776,8.332
5.78,8.192
5.784,8.424
5.788,8.604
5.792,8.404
5.796,8.212
5.8,8.392
5.804,8.6
5.808,8.44
5.812,8.24
5.816,8.364
5.82,8.632
5.824,8.54
5.828,8.316
5.832,8.38
5.836,8.628
5.84,8.66
5.844,8.408
5.848,8.428
5.852,8.684
5.856,8.752
5.86,8.556
5.864,8.464
5.868,8.728
5.872,8.864
5.876,8.672
5.88,8.548
5.884,8.756
5.888,8.932
5.892,8.756
5.896,8.572
5.9,8.744
5.904,8.944
5.908,8.756
5.912,8.496
5.916,8.604
5.92,8.792
5.924,8.66
5.928,8.408
5.932,8.436
5.936,8.64
5.94,8.572
5.944,8.332
5.948,8.288
5.952,8.496
5.956,8.58
5.96,8.312
5.964,8.192
5.968,8.436
5.972,8.532
5.976,8.324
5.98,8.192
5.984,8.4
5.988,8.56
5.992,8.344
5.996,8.132
6,8.344
6.004,8.572
6.008,8.38
6.012,8.172
6.016,8.3
6.02,8.512
6.024,8.42
6.028,8.196
6.032,8.232
6.036,8.5
6.04,8.496
6.044,8.232
6.048,8.176
6.052,8.46
6.056,8.52
6.06,8.268
6.064,8.192
6.068,8.404
6.072,8.544
6.076,8.324
6.08,8.164
6.084,8.388
6.088,8.552
6.092,8.34
6.096,8.156
6.1,8.348
6.104,8.548
6.108,8.412
6.112,8.176
6.116,8.296
6.12,8.544
6.124,8.448
6.128,8.204
6.132,8.272
6.136,8.496
6.14,8.496
6.144,8.244
6.148,8.232
6.152,8.444
6.156,8.516
6.16,8.288
6.164,8.176
6.168,8.412
6.172,8.544
6.176,8.308
6.18,8.16
6.184,8.372
6.188,8.536
6.192,8.356
6.196,8.14
6.2,8.336
6.204,8.548
6.208,8.376
6.212,8.168
6.216,8.276
6.22,8.508
6.224,8.412
6.228,8.16
6.232,8.2
6.236,8.444
6.24,8.444
6.244,8.204
6.248,8.152
6.252,8.408
6.256,8.48
6.26,8.224
6.264,8.124
6.268,8.352
6.272,8.492
6.276,8.276
6.28,8.112
6.284,8.312
6.288,8.532
6.292,8.284
6.296,8.076
6.3,8.272
6.304,8.508
6.308,8.356
6.312,8.14
6.316,8.212
6.32,8.464
6.324,8.384
6.328,8.132
6.332,8.2
6.336,8.428
6.34,8.428
6.344,8.188
6.348,8.188
6.352,8.44
6.356,8.52
6.36,8.296
6.364,8.188
6.368,8.42
6.372,8.576
6.376,8.36
6.38,8.216
6.384,8.432
6.388,8.624
6.392,8.408
6.396,8.232
6.4,8.416
6.404,8.628
6.408,8.472
6.412,8.236
6.416,8.344
6.42,8.588
6.424,8.528
6.428,8.26
6.432,8.296
6.436,8.472
6.44,8.496
6.444,8.2
6.448,8.108
6.452,8.348
6.456,8.408
6.46,8.188
6.464,8.072
6.468,8.292
6.472,8.436
6.476,8.188
6.48,8.052
6.484,8.26
6.488,8.436
6.492,8.224
6.496,8.036
6.5,8.2
6.504,8.404
6.508,8.268
6.512,8.064
6.516,8.152
6.52,8.396
6.524,8.292
6.528,7.976
6.532,7.944
6.536,8.252
6.54,8.4
6.544,8.524
6.548,9.052
6.552,9.844
6.556,10.436
6.56,10.144
6.564,9.316
6.568,9.032
6.572,9.048
6.576,8.768
6.58,8.472
6.584,8.56
6.588,8.6
6.592,8.356
6.596,8.12
6.6,8.28
6.604,8.48
6.608,8.34
6.612,8.084
6.616,8.196
6.62,8.392
6.624,8.336
6.628,8.12
6.632,8.116
6.636,8.368
6.64,8.376
6.644,8.14
6.648,8.072
6.652,8.332
6.656,8.452
6.66,8.176
6.664,8.072
6.668,8.288
6.672,8.44
6.676,8.172
6.68,8.052
6.684,8.232
6.688,8.444
6.692,8.252
6.696,8.056
6.7,8.228
6.704,8.396
6.708,8.28
6.712,8.068
6.716,8.2
6.72,8.396
6.724,8.352
6.728,8.108
6.732,8.136
6.736,8.36
6.74,8.392
6.744,8.184
6.748,8.116
6.752,8.344
6.756,8.428
6.76,8.208
6.764,8.12
6.768,8.344
6.772,8.512
6.776,8.268
6.78,8.116
6.784,8.328
6.788,8.544
6.792,8.332
6.796,8.168
6.8,8.348
6.804,8.58
6.808,8.444
6.812,8.256
6.816,8.388
6.82,8.604
6.824,8.572
6.828,8.372
6.832,8.42
6.836,8.676
6.84,8.712
6.844,8.488
6.848,8.424
6.852,8.676
6.856,8.78
6.86,8.56
6.864,8.436
6.868,8.66
6.872,8.768
6.876,8.5
6.88,8.336
6.884,8.492
6.888,8.66
6.892,8.428
6.896,8.192
6.9,8.344
6.904,8.544
6.908,8.372
6.912,8.132
6.916,8.212
6.92,8.42
6.924,8.344
6.928,8.112
6.932,8.136
6.936,8.38
6.94,8.384
6.944,8.1
6.948,8.064
6.952,8.316
6.956,8.388
6.96,8.148
6.964,8.016
6.968,8.292
6.972,8.436
6.976,8.18
6.98,8.012
6.984,8.244
6.988,8.42
6.992,8.248
6.996,8.04
7,8.18
7.004,8.372
7.008,8.284
7.012,8.06
7.016,8.156
7.02,8.36
7.024,8.32
7.028,8.108
7.032,8.132
7.036,8.388
7.04,8.392
7.044,8.124
7.048,8.084
7.052,8.328
7.056,8.424
7.06,8.192
7.064,8.056
7.068,8.312
7.072,8.464
7.076,8.232
7.08,8.08
7.084,8.272
7.088,8.46
7.092,8.272
7.096,8.092
7.1,8.224
7.104,8.448
7.108,8.308
7.112,8.096
7.116,8.188
7.12,8.436
7.124,8.372
7.128,8.116
7.132,8.144
7.136,8.384
7.14,8.388
7.144,8.172
7.148,8.104
7.152,8.32
7.156,8.396
7.16,8.136
7.164,8.048
7.168,8.264
7.172,8.432
7.176,8.216
7.18,8.052
7.184,8.236
7.188,8.412
7.192,8.232
7.196,8.032
7.2,8.192
7.204,8.416
7.208,8.292
7.212,8.068
7.216,8.164
7.22,8.344
7.224,8.288
7.228,8.084
7.232,8.08
7.236,8.34
7.24,8.344
7.244,8.124
7.248,8.08
7.252,8.296
7.256,8.392
7.26,8.156
7.264,8.04
7.268,8.244
7.272,8.364
7.276,8.16
7.28,8.04
7.284,8.252
7.288,8.428
7.292,8.24
7.296,8.04
7.3,8.184
7.304,8.38
7.308,8.26
7.312,8.044
7.316,8.144
7.32,8.368
7.324,8.32
7.328,8.112
7.332,8.168
7.336,8.42
7.34,8.428
7.344,8.208
7.348,8.172
7.352,8.404
7.356,8.492
7.36,8.256
7.364,8.144
7.368,8.4
7.372,8.548
7.376,8.316
7.38,8.148
7.384,8.388
7.388,8.552
7.392,8.328
7.396,8.1
7.4,8.26
7.404,8.512
7.408,8.384
7.412,8.132
7.416,8.232
7.42,8.396
7.424,8.324
7.428,8.052
7.432,8.056
7.436,8.3
7.44,8.324
7.444,8.08
7.448,8.016
7.452,8.26
7.456,8.348
7.46,8.12
7.464,7.98
7.468,8.224
7.472,8.368
7.476,8.136
7.48,7.996
7.484,8.224
7.488,8.384
7.492,8.192
7.496,7.996
7.5,8.156
7.504,8.3
7.508,8.084
7.512,7.896
7.516,8.124
7.52,8.544
7.524,8.948
7.528,9.276
7.532,9.82
7.536,10.252
7.54,9.832
7.544,8.956
7.548,8.656
7.552,8.792
7.556,8.792
7.56,8.464
7.564,8.192
7.568,8.352
7.572,8.5
7.576,8.272
7.58,8.08
7.584,8.28
7.588,8.448
7.592,8.28
7.596,8.068
7.6,8.212
7.604,8.404
7.608,8.288
7.612,8.08
7.616,8.168
7.62,8.424
7.624,8.36
7.628,8.104
7.632,8.124
7.636,8.36
7.64,8.38
7.644,8.156
7.648,8.076
7.652,8.336
7.656,8.412
7.66,8.2
7.664,8.104
7.668,8.312
7.672,8.456
7.676,8.252
7.68,8.072
7.684,8.252
7.688,8.476
7.692,8.3
7.696,8.092
7.7,8.252
7.704,8.468
7.708,8.316
7.712,8.108
7.716,8.22
7.72,8.428
7.724,8.404
7.728,8.176
7.732,8.192
7.736,8.44
7.74,8.452
7.744,8.208
7.748,8.188
7.752,8.384
7.756,8.504
7.76,8.312
7.764,8.196
7.768,8.428
7.772,8.58
7.776,8.364
7.78,8.26
7.784,8.436
7.788,8.66
7.792,8.52
7.796,8.34
7.8,8.516
7.804,8.728
7.808,8.64
7.812,8.424
7.816,8.524
7.82,8.756
7.824,8.74
7.828,8.536
7.832,8.556
7.836,8.792
7.84,8.792
7.844,8.568
7.848,8.496
7.852,8.688
7.856,8.768
7.86,8.552
7.864,8.388
7.868,8.576
7.872,8.696
7.876,8.436
7.88,8.252
7.884,8.388
7.888,8.584
7.892,8.396
7.896,8.172
7.9,8.308
7.904,8.528
7.908,8.412
7.912,8.192
7.916,8.252
7.92,8.468
7.924,8.432
7.928,8.208
7.932,8.244
7.936,8.464
7.94,8.48
7.944,8.256
7.948,8.18
7.952,8.42
7.956,8.508
7.96,8.26
7.964,8.164
7.968,8.392
7.972,8.552
7.976,8.336
7.98,8.144
7.984,8.348
7.988,8.556
7.992,8.36
7.996,8.168
8,8.336
8.004,8.524
8.008,8.444
8.012,8.22
8.016,8.316
8.02,8.516
8.024,8.452
8.028,8.232
8.032,8.228
8.036,8.48
8.04,8.52
8.044,8.28
8.048,8.212
8.052,8.432
8.056,8.564
8.06,8.3
8.064,8.204
8.068,8.448
8.072,8.6
8.076,8.392
8.08,8.2
8.084,8.396
8.088,8.592
8.092,8.4
8.096,8.192
8.1,8.324
8.104,8.556
8.108,8.46
8.112,8.224
8.116,8.312
8.12,8.532
8.124,8.492
8.128,8.244
8.132,8.256
8.136,8.464
8.14,8.548
8.144,8.292
8.148,8.216
8.152,8.452
8.156,8.564
8.16,8.316
8.164,8.18
8.168,8.42
8.172,8.564
8.176,8.348
8.18,8.188
8.184,8.372
8.188,8.592
8.192,8.38
8.196,8.188
8.2,8.348
8.204,8.572
8.208,8.44
8.212,8.22
8.216,8.292
8.22,8.512
8.224,8.476
8.228,8.248
8.232,8.256
8.236,8.488
8.24,8.52
8.244,8.284
8.248,8.228
8.252,8.436
8.256,8.572
8.26,8.316
8.264,8.184
8.268,8.428
8.272,8.56
8.276,8.34
8.28,8.2
8.284,8.388
8.288,8.56
8.292,8.396
8.296,8.196
8.3,8.348
8.304,8.556
8.308,8.456
8.312,8.256
8.316,8.356
8.32,8.612
8.324,8.56
8.328,8.376
8.332,8.332
8.336,8.6
8.34,8.632
8.344,8.412
8.348,8.38
8.352,8.604
8.356,8.692
8.36,8.476
8.364,8.316
8.368,8.576
8.372,8.716
8.376,8.492
8.38,8.304
8.384,8.508
8.388,8.708
8.392,8.524
8.396,8.304
8.4,8.44
8.404,8.64
8.408,8.48
8.412,8.224
8.416,8.3
8.42,8.512
8.424,8.48
8.428,8.26
8.432,8.232
8.436,8.48
8.44,8.508
8.444,8.256
8.448,8.196
8.452,8.452
8.456,8.568
8.46,8.312
8.464,8.156
8.468,8.38
8.472,8.564
8.476,8.352
8.48,8.188
8.484,8.376
8.488,8.552
8.492,8.308
8.496,8.044
8.5,8.244
8.504,8.616
8.508,8.788
8.512,9.092
8.516,9.684
8.52,10.408
8.524,10.272
8.528,9.412
8.532,8.912
8.536,9.016
8.54,8.956
8.544,8.688
8.548,8.468
8.552,8.6
8.556,8.676
8.56,8.444
8.564,8.296
8.568,8.5
8.572,8.64
8.576,8.432
8.58,8.248
8.584,8.44
8.588,8.632
8.592,8.428
8.596,8.244
8.6,8.364
8.604,8.6
8.608,8.496
8.612,8.276
8.616,8.348
8.62,8.592
8.624,8.54
8.628,8.304
8.632,8.3
8.636,8.544
8.64,8.576
8.644,8.348
8.648,8.268
8.652,8.492
8.656,8.6
8.66,8.412
8.664,8.24
8.668,8.488
8.672,8.644
8.676,8.448
8.68,8.272
8.684,8.452
8.688,8.64
8.692,8.5
8.696,8.292
8.7,8.444
8.704,8.624
8.708,8.544
8.712,8.328
8.716,8.392
8.72,8.624
8.724,8.632
8.728,8.392
8.732,8.392
8.736,8.604
8.74,8.676
8.744,8.456
8.748,8.388
8.752,8.624
8.756,8.752
8.76,8.52
8.764,8.416
8.768,8.644
8.772,8.848
8.776,8.656
8.78,8.492
8.784,8.684
8.788,8.88
8.792,8.764
8.796,8.576
8.8,8.716
8.804,8.96
8.808,8.856
8.812,8.672
8.816,8.74
8.82,8.948
8.824,8.932
8.828,8.712
8.832,8.676
8.836,8.912
8.84,8.968
8.844,8.688
8.848,8.556
8.852,8.764
8.856,8.848
8.86,8.584
8.864,8.436
8.868,8.652
8.872,8.772
8.876,8.54
8.88,8.356
8.884,8.508
8.888,8.696
8.892,8.536
8.896,8.332
8.9,8.46
8.904,8.684
8.908,8.576
8.912,8.336
8.916,8.388
8.92,8.632
8.924,8.608
8.928,8.356
8.932,8.348
8.936,8.596
8.94,8.676
8.944,8.416
8.948,8.296
8.952,8.544
8.956,8.66
8.96,8.444
8.964,8.308
8.968,8.536
8.972,8.696
8.976,8.468
8.98,8.308
8.984,8.484
8.988,8.656
8.992,8.532
8.996,8.316
9,8.476
9.004,8.68
9.008,8.58
9.012,8.36
9.016,8.444
9.02,8.656
9.024,8.636
9.028,8.372
9.032,8.412
9.036,8.616
9.04,8.684
9.044,8.464
9.048,8.376
9.052,8.596
9.056,8.712
9.06,8.484
9.064,8.328
9.068,8.564
9.072,8.704
9.076,8.512
9.08,8.364
9.084,8.548
9.088,8.724
9.092,8.54
9.096,8.352
9.1,8.48
9.104,8.68
9.108,8.592
9.112,8.388
9.116,8.448
9.12,8.68
9.124,8.632
9.128,8.38
9.132,8.396
9.136,8.628
9.14,8.7
9.144,8.44
9.148,8.356
9.152,8.568
9.156,8.684
9.16,8.464
9.164,8.34
9.168,8.556
9.172,8.704
9.176,8.508
9.18,8.352
9.184,8.544
9.188,8.716
9.192,8.572
9.196,8.356
9.2,8.464
9.204,8.688
9.208,8.592
9.212,8.392
9.216,8.444
9.22,8.652
9.224,8.636
9.228,8.4
9.232,8.396
9.236,8.624
9.24,8.684
9.244,8.444
9.248,8.376
9.252,8.6
9.256,8.704
9.26,8.488
9.264,8.308
9.268,8.552
9.272,8.748
9.276,8.524
9.28,8.344
9.284,8.524
9.288,8.716
9.292,8.576
9.296,8.364
9.3,8.492
9.304,8.708
9.308,8.588
9.312,8.392
9.316,8.488
9.32,8.744
9.324,8.736
9.328,8.512
9.332,8.492
9.336,8.728
9.34,8.808
9.344,8.58
9.348,8.492
9.352,8.736
9.356,8.848
9.36,8.628
9.364,8.504
9.368,8.704
9.372,8.832
9.376,8.64
9.38,8.452
9.384,8.668
9.388,8.852
9.392,8.676
9.396,8.42
9.4,8.532
9.404,8.708
9.408,8.6
9.412,8.36
9.416,8.412
9.42,8.656
9.424,8.616
9.428,8.392
9.432,8.36
9.436,8.592
9.44,8.652
9.444,8.424
9.448,8.352
9.452,8.576
9.456,8.684
9.46,8.456
9.464,8.304
9.468,8.512
9.472,8.696
9.476,8.476
9.48,8.34
9.484,8.5
9.488,8.656
9.492,8.4
9.496,8.152
9.5,8.404
9.504,8.808
9.508,9.132
9.512,9.424
9.516,10.024
9.52,10.58
9.524,10.144
9.528,9.232
9.532,8.924
9.536,9.108
9.54,9.068
9.544,8.732
9.548,8.544
9.552,8.684
9.556,8.792
9.56,8.564
9.564,8.436
9.568,8.612
9.572,8.764
9.576,8.58
9.58,8.344
9.584,8.524
9.588,8.76
9.592,8.592
9.596,8.384
9.6,8.496
9.604,8.712
9.608,8.612
9.612,8.38
9.616,8.448
9.62,8.668
9.624,8.676
9.628,8.44
9.632,8.416
9.636,8.616
9.64,8.712
9.644,8.456
9.648,8.384
9.652,8.604
9.656,8.748
9.66,8.516
9.664,8.344
9.668,8.556
9.672,8.768
9.676,8.548
9.68,8.368
9.684,8.548
9.688,8.744
9.692,8.616
9.696,8.396
9.7,8.488
9.704,8.736
9.708,8.632
9.712,8.436
9.716,8.452
9.72,8.708
9.724,8.704
9.728,8.472
9.732,8.476
9.736,8.708
9.74,8.772
9.744,8.544
9.748,8.484
9.752,8.72
9.756,8.828
9.76,8.656
9.764,8.496
9.768,8.748
9.772,8.912
9.776,8.748
9.78,8.54
9.784,8.756
9.788,8.96
9.792,8.844
9.796,8.676
9.8,8.828
9.804,9.06
9.808,8.984
9.812,8.728
9.816,8.808
9.82,9.032
9.824,9.04
9.828,8.78
9.832,8.748
9.836,8.956
9.84,9.016
9.844,8.744
9.848,8.616
9.852,8.828
9.856,8.912
9.86,8.664
9.864,8.472
9.868,8.668
9.872,8.86
9.876,8.624
9.88,8.424
9.884,8.576
9.888,8.748
9.892,8.616
9.896,8.404
9.9,8.5
9.904,8.72
9.908,8.664
9.912,8.424
9.916,8.452
9.92,8.684
9.924,8.68
9.928,8.408
9.932,8.408
9.936,8.64
9.94,8.732
9.944,8.492
9.948,8.392
9.952,8.6
9.956,8.736
9.96,8.524
9.964,8.36
9.968,8.576
9.972,8.768
9.976,8.564
9.98,8.38
9.984,8.524
9.988,8.748
9.992,8.6
9.996,8.396
10,8.508
10.004,8.728
10.008,8.672
10.012,8.44
10.016,8.472
10.02,8.72
10.024,8.72
10.028,8.48
10.032,8.436
10.036,8.66
10.04,8.748
10.044,8.504
10.048,8.404
10.052,8.632
10.056,8.776
10.06,8.548
10.064,8.396
10.068,8.62
10.072,8.772
10.076,8.588
10.08,8.38
10.084,8.548
10.088,8.784
10.092,8.632
10.096,8.4
10.1,8.516
10.104,8.736
10.108,8.676
10.112,8.42
10.116,8.464
10.12,8.696
10.124,8.7
10.128,8.456
10.132,8.404
10.136,8.64
10.14,8.696
10.144,8.516
10.148,8.412
10.152,8.648
10.156,8.756
10.16,8.52
10.164,8.368
10.168,8.556
10.172,8.748
10.176,8.56
10.18,8.384
10.184,8.516
10.188,8.728
10.192,8.58
10.196,8.36
10.2,8.5
10.204,8.728
10.208,8.624
10.212,8.42
10.216,8.456
10.22,8.676
10.224,8.672
10.228,8.44
10.232,8.42
10.236,8.64
10.24,8.704
10.244,8.456
10.248,8.36
10.252,8.588
10.256,8.744
10.26,8.492
10.264,8.388
10.268,8.584
10.272,8.732
10.276,8.54
10.28,8.36
10.284,8.524
10.288,8.74
10.292,8.572
10.296,8.36
10.3,8.46
10.304,8.704
10.308,8.604
10.312,8.412
10.316,8.468
10.32,8.724
10.324,8.752
10.328,8.508
10.332,8.5
10.336,8.732
10.34,8.8
10.344,8.596
10.348,8.46
10.352,8.736
10.356,8.888
10.36,8.696
10.364,8.52
10.368,8.704
10.372,8.86
10.376,8.684
10.38,8.464
10.384,8.624
10.388,8.852
10.392,8.724
10.396,8.504
10.4,8.564
10.404,8.776
10.408,8.684
10.412,8.412
10.416,8.432
10.42,8.668
10.424,8.664
10.428,8.42
10.432,8.372
10.436,8.596
10.44,8.672
10.444,8.436
10.448,8.296
10.452,8.572
10.456,8.668
10.46,8.472
10.464,8.324
10.468,8.512
10.472,8.72
10.476,8.5
10.48,8.316
10.484,8.496
10.488,8.688
10.492,8.52
10.496,8.204
10.5,8.268
10.504,8.612
10.508,8.704
10.512,8.82
10.516,9.376
10.52,10.172
10.524,10.552
10.528,10.008
10.532,9.264
10.536,9.132
10.54,9.196
10.544,8.852
10.548,8.664
10.552,8.768
10.556,8.852
10.56,8.58
10.564,8.464
10.568,8.636
10.572,8.808
10.576,8.564
10.58,8.372
10.584,8.52
10.588,8.732
10.592,8.636
10.596,8.388
10.6,8.476
10.604,8.676
10.608,8.624
10.612,8.384
10.616,8.436
10.62,8.648
10.624,8.668
10.628,8.428
10.632,8.404
10.636,8.656
10.64,8.692
10.644,8.468
10.648,8.372
10.652,8.604
10.656,8.736
10.66,8.524
10.664,8.364
10.668,8.572
10.672,8.728
10.676,8.568
10.68,8.392
10.684,8.54
10.688,8.732
10.692,8.636
10.696,8.416
10.7,8.524
10.704,8.74
10.708,8.676
10.712,8.452
10.716,8.484
10.72,8.688
10.724,8.72
10.728,8.496
10.732,8.448
10.736,8.716
10.74,8.796
10.744,8.56
10.748,8.444
10.752,8.696
10.756,8.86
10.76,8.644
10.764,8.476
10.768,8.724
10.772,8.928
10.776,8.76
10.78,8.584
10.784,8.74
10.788,8.96
10.792,8.864
10.796,8.664
10.8,8.792
10.804,9.028
10.808,8.992
10.812,8.736
10.816,8.784
10.82,9.044
10.824,9.052
10.828,8.82
10.832,8.78
10.836,8.98
10.84,9.076
10.844,8.816
10.848,8.656
10.852,8.856
10.856,8.94
10.86,8.716
10.864,8.536
10.868,8.704
10.872,8.86
10.876,8.66
10.88,8.428
10.884,8.564
10.888,8.78
10.892,8.64
10.896,8.412
10.9,8.484
10.904,8.688
10.908,8.664
10.912,8.44
10.916,8.444
10.92,8.648
10.924,8.676
10.928,8.424
10.932,8.396
10.936,8.628
10.94,8.716
10.944,8.504
10.948,8.376
10.952,8.596
10.956,8.724
10.96,8.512
10.964,8.328
10.968,8.548
10.972,8.74
10.976,8.568
10.98,8.364
10.984,8.484
10.988,8.724
10.992,8.596
10.996,8.38
11,8.496
11.004,8.724
11.008,8.64
11.012,8.396
11.016,8.444
11.02,8.664
11.024,8.712
11.028,8.464
11.032,8.404
11.036,8.632
11.04,8.708
11.044,8.5
11.048,8.388
11.052,8.596
11.056,8.796
11.06,8.564
11.064,8.372
11.068,8.564
11.072,8.776
11.076,8.56
11.08,8.388
11.084,8.552
11.088,8.72
11.092,8.584
11.096,8.36
11.1,8.488
11.104,8.712
11.108,8.66
11.112,8.396
11.116,8.444
11.12,8.676
11.124,8.668
11.128,8.448
11.132,8.392
11.136,8.612
11.14,8.708
11.144,8.468
11.148,8.34
11.152,8.572
11.156,8.724
11.16,8.516
11.164,8.344
11.168,8.548
11.172,8.748
11.176,8.548
11.18,8.372
11.184,8.492
11.188,8.68
11.192,8.572
11.196,8.38
11.2,8.452
11.204,8.66
11.208,8.588
11.212,8.384
11.216,8.4
11.22,8.62
11.224,8.656
11.228,8.424
11.232,8.348
11.236,8.596
11.24,8.696
11.244,8.46
11.248,8.38
11.252,8.572
11.256,8.708
11.26,8.468
11.264,8.312
11.268,8.496
11.272,8.72
11.276,8.52
11.28,8.332
11.284,8.492
11.288,8.676
11.292,8.588
11.296,8.356
11.3,8.408
11.304,8.656
11.308,8.636
11.312,8.42
11.316,8.46
11.32,8.696
11.324,8.736
11.328,8.524
11.332,8.44
11.336,8.684
11.34,8.808
11.344,8.572
11.348,8.496
11.352,8.732
11.356,8.884
11.36,8.636
11.364,8.46
11.368,8.656
11.372,8.824
11.376,8.636
11.38,8.476
11.384,8.632
11.388,8.824
11.392,8.66
11.396,8.432
11.4,8.488
11.404,8.672
11.408,8.604
11.412,8.348
11.416,8.364
11.42,8.62
11.424,8.624
11.428,8.376
11.432,8.324
11.436,8.532
11.44,8.644
11.444,8.396
11.448,8.26
11.452,8.484
11.456,8.664
11.46,8.456
11.464,8.276
11.468,8.46
11.472,8.664
11.476,8.464
11.48,8.268
11.484,8.36
11.488,8.52
11.492,8.312
11.496,8.188
11.5,8.428
11.504,9.016
11.508,9.54
11.512,9.952
11.516,10.484
11.52,10.604
11.524,9.808
11.528,9.048
11.532,8.916
11.536,9.072
11.54,9.044
11.544,8.716
11.548,8.492
11.552,8.648
11.556,8.772
11.56,8.528
11.564,8.344
11.568,8.532
11.572,8.724
11.576,8.532
11.58,8.316
11.584,8.452
11.588,8.668
11.592,8.556
11.596,8.328
11.6,8.404
11.604,8.64
11.608,8.596
11.612,8.352
11.616,8.364
11.62,8.58
11.624,8.628
11.628,8.384
11.632,8.32
11.636,8.572
11.64,8.668
11.644,8.42
11.648,8.304
11.652,8.52
11.656,8.692
11.66,8.448
11.664,8.324
11.668,8.504
11.672,8.704
11.676,8.508
11.68,8.296
11.684,8.46
11.688,8.672
11.692,8.564
11.696,8.368
11.7,8.448
11.704,8.656
11.708,8.6
11.712,8.396
11.716,8.376
11.72,8.644
11.724,8.7
11.728,8.464
11.732,8.404
11.736,8.64
11.74,8.748
11.744,8.516
11.748,8.428
11.752,8.644
11.756,8.812
11.76,8.612
11.764,8.468
11.768,8.68
11.772,8.876
11.776,8.744
11.78,8.548
11.784,8.696
11.788,8.944
11.792,8.86
11.796,8.668
11.8,8.792
11.804,9.012
11.808,8.988
11.812,8.764
11.816,8.74
11.82,9.004
11.824,9.076
11.828,8.784
11.832,8.704
11.836,8.896
11.84,9.004
11.844,8.732
11.848,8.58
11.852,8.756
11.856,8.88
11.86,8.612
11.864,8.436
11.868,8.6
11.872,8.768
11.876,8.576
11.88,8.38
11.884,8.504
11.888,8.684
11.892,8.58
11.896,8.344
11.9,8.432
11.904,8.648
11.908,8.612
11.912,8.372
11.916,8.384
11.92,8.592
11.924,8.636
11.928,8.396
11.932,8.332
11.936,8.584
11.94,8.692
11.944,8.456
11.948,8.336
11.952,8.532
11.956,8.684
11.96,8.504
11.964,8.284
11.968,8.496
11.972,8.712
11.976,8.536
11.98,8.34
11.984,8.476
11.988,8.68
11.992,8.56
11.996,8.364
12,8.44
12.004,8.648
12.008,8.628
12.012,8.404
12.016,8.408
12.02,8.656
12.024,8.652
12.028,8.424
12.032,8.36
12.036,8.596
12.04,8.724
12.044,8.492
12.048,8.368
12.052,8.58
12.056,8.708
12.06,8.52
12.064,8.364
12.068,8.544
12.072,8.732
12.076,8.56
12.08,8.348
12.084,8.468
12.088,8.708
12.092,8.58
12.096,8.372
12.1,8.432
12.104,8.656
12.108,8.616
12.112,8.416
12.116,8.408
12.12,8.624
12.124,8.66
12.128,8.408
12.132,8.336
12.136,8.576
12.14,8.692
12.144,8.464
12.148,8.348
12.152,8.54
12.156,8.704
12.16,8.46
12.164,8.308
12.168,8.508
12.172,8.708
12.176,8.528
12.18,8.352
12.184,8.508
12.188,8.664
12.192,8.564
12.196,8.344
12.2,8.42
12.204,8.628
12.208,8.596
12.212,8.388
12.216,8.384
12.22,8.608
12.224,8.648
12.228,8.428
12.232,8.34
12.236,8.564
12.24,8.672
12.244,8.444
12.248,8.336
12.252,8.532
12.256,8.708
12.26,8.488
12.264,8.292
12.268,8.488
12.272,8.7
12.276,8.536
12.28,8.316
12.284,8.484
12.288,8.732
12.292,8.648
12.296,8.416
12.3,8.5
12.304,8.724
12.308,8.716
12.312,8.492
12.316,8.512
12.32,8.756
12.324,8.804
12.328,8.572
12.332,8.512
12.336,8.72
12.34,8.812
12.344,8.584
12.348,8.44
12.352,8.644
12.356,8.82
12.36,8.632
12.364,8.444
12.368,8.64
12.372,8.784
12.376,8.588
12.38,8.356
12.384,8.476
12.388,8.648
12.392,8.54
12.396,8.312
12.4,8.408
12.404,8.6
12.408,8.548
12.412,8.336
12.416,8.344
12.42,8.568
12.424,8.62
12.428,8.38
12.432,8.3
12.436,8.528
12.44,8.628
12.444,8.432
12.448,8.284
12.452,8.472
12.456,8.688
12.46,8.46
12.464,8.22
12.468,8.284
12.472,8.516
12.476,8.48
12.48,8.536
12.484,9.18
12.488,9.976
12.492,10.436
12.496,10.42
12.5,9.924
12.504,9.488
12.508,9.224
12.512,8.94
12.516,8.808
12.52,8.928
12.524,8.836
12.528,8.548
12.532,8.456
12.536,8.636
12.54,8.74
12.544,8.504
12.548,8.344
12.552,8.56
12.556,8.712
12.56,8.516
12.564,8.344
12.568,8.512
12.572,8.7
12.576,8.544
12.58,8.356
12.584,8.48
12.588,8.7
12.592,8.56
12.596,8.348
12.6,8.404
12.604,8.664
12.608,8.604
12.612,8.38
12.616,8.376
12.62,8.62
12.624,8.648
12.628,8.424
12.632,8.356
12.636,8.58
12.64,8.7
12.644,8.468
12.648,8.352
12.652,8.556
12.656,8.712
12.66,8.536
12.664,8.364
12.668,8.56
12.672,8.724
12.676,8.552
12.68,8.364
12.684,8.496
12.688,8.732
12.692,8.616
12.696,8.388
12.7,8.484
12.704,8.72
12.708,8.692
12.712,8.448
12.716,8.44
12.72,8.7
12.724,8.732
12.728,8.552
12.732,8.5
12.736,8.716
12.74,8.812
12.744,8.636
12.748,8.52
12.752,8.744
12.756,8.944
12.76,8.756
12.764,8.592
12.768,8.804
12.772,9.012
12.776,8.84
12.78,8.68
12.784,8.82
12.788,9.016
12.792,8.94
12.796,8.728
12.8,8.808
12.804,9.036
12.808,8.992
12.812,8.716
12.816,8.7
12.82,8.92
12.824,8.924
12.828,8.648
12.832,8.552
12.836,8.756
12.84,8.852
12.844,8.604
12.848,8.456
12.852,8.62
12.856,8.752
12.86,8.54
12.864,8.364
12.868,8.544
12.872,8.736
12.876,8.584
12.88,8.384
12.884,8.492
12.888,8.688
12.892,8.584
12.896,8.36
12.9,8.436
12.904,8.656
12.908,8.644
12.912,8.432
12.916,8.404
12.92,8.656
12.924,8.672
12.928,8.46
12.932,8.372
12.936,8.596
12.94,8.72
12.944,8.48
12.948,8.344
12.952,8.58
12.956,8.732
12.96,8.528
12.964,8.352
12.968,8.532
12.972,8.684
12.976,8.58
12.98,8.388
12.984,8.516
12.988,8.728
12.992,8.624
12.996,8.408
13,8.452
13.004,8.676
13.008,8.68
13.012,8.472
13.016,8.456
13.02,8.668
13.024,8.716
13.028,8.512
13.032,8.408
13.036,8.64
13.04,8.72
13.044,8.528
13.048,8.408
13.052,8.6
13.056,8.74
13.06,8.588
13.064,8.388
13.068,8.584
13.072,8.78
13.076,8.588
13.08,8.408
13.084,8.528
13.088,8.72
13.092,8.632
13.096,8.424
13.1,8.496
13.104,8.688
13.108,8.664
13.112,8.448
13.116,8.448
13.12,8.66
13.124,8.696
13.128,8.5
13.132,8.416
13.136,8.612
13.14,8.7
13.144,8.5
13.148,8.384
13.152,8.564
13.156,8.736
13.16,8.536
13.164,8.364
13.168,8.556
13.172,8.732
13.176,8.592
13.18,8.404
13.184,8.524
13.188,8.728
13.192,8.652
13.196,8.408
13.2,8.464
13.204,8.692
13.208,8.652
13.212,8.444
13.216,8.436
13.22,8.672
13.224,8.704
13.228,8.488
13.232,8.416
13.236,8.636
13.24,8.716
13.244,8.504
13.248,8.388
13.252,8.58
13.256,8.716
13.26,8.548
13.264,8.396
13.268,8.572
13.272,8.76
13.276,8.628
13.28,8.468
13.284,8.608
13.288,8.812
13.292,8.744
13.296,8.5
13.3,8.568
13.304,8.796
13.308,8.76
13.312,8.56
13.316,8.556
13.32,8.736
13.324,8.796
13.328,8.588
13.332,8.472
13.336,8.684
13.34,8.8
13.344,8.588
13.348,8.464
13.352,8.656
13.356,8.78
13.36,8.572
13.364,8.368
13.368,8.516
13.372,8.684
13.376,8.524
13.38,8.328
13.384,8.456
13.388,8.64
13.392,8.548
13.396,8.356
13.4,8.384
13.404,8.608
13.408,8.6
13.412,8.364
13.416,8.336
13.42,8.556
13.424,8.62
13.428,8.42
13.432,8.352
13.436,8.556
13.44,8.652
13.444,8.4
13.448,8.2
13.452,8.34
13.456,8.544
13.46,8.516
13.464,8.628
13.468,9.316
13.472,10.004
13.476,10.356
13.48,10.164
13.484,9.656
13.488,9.328
13.492,9.076
13.496,8.78
13.5,8.756
13.504,8.872
13.508,8.72
13.512,8.464
13.516,8.428
13.52,8.656
13.524,8.72
13.528,8.472
13.532,8.372
13.536,8.584
13.54,8.696
13.544,8.448
13.548,8.328
13.552,8.472
13.556,8.664
13.56,8.468
13.564,8.332
13.568,8.5
13.572,8.644
13.576,8.52
13.58,8.324
13.584,8.432
13.588,8.636
13.592,8.588
13.596,8.392
13.6,8.384
13.604,8.608
13.608,8.608
13.612,8.408
13.616,8.38
13.62,8.572
13.624,8.628
13.628,8.428
13.632,8.336
13.636,8.576
13.64,8.676
13.644,8.452
13.648,8.32
13.652,8.536
13.656,8.684
13.66,8.528
13.664,8.352
13.668,8.504
13.672,8.68
13.676,8.528
13.68,8.348
13.684,8.464
13.688,8.684
13.692,8.592
13.696,8.392
13.7,8.472
13.704,8.7
13.708,8.692
13.712,8.476
13.716,8.476
13.72,8.716
13.724,8.768
13.728,8.56
13.732,8.496
13.736,8.76
13.74,8.86
13.744,8.684
13.748,8.572
13.752,8.772
13.756,8.964
13.76,8.784
13.764,8.624
13.768,8.804
13.772,9.004
13.776,8.876
13.78,8.688
13.784,8.792
13.788,8.98
13.792,8.876
13.796,8.672
13.8,8.696
13.804,8.84
13.808,8.804
13.812,8.596
13.816,8.536
13.82,8.716
13.824,8.764
13.828,8.512
13.832,8.392
13.836,8.592
13.84,8.708
13.844,8.488
13.848,8.332
13.852,8.512
13.856,8.676
13.86,8.476
13.864,8.272
13.868,8.448
13.872,8.62
13.876,8.504
13.88,8.312
13.884,8.412
13.888,8.628
13.892,8.532
13.896,8.312
13.9,8.352
13.904,8.588
13.908,8.588
13.912,8.364
13.916,8.352
13.92,8.552
13.924,8.604
13.928,8.38
13.932,8.28
13.936,8.532
13.94,8.624
13.944,8.424
13.948,8.624
13.952,8.168
13.956,7.764
13.96,8.724
13.964,8.88
13.968,7.948
13.972,7.78
13.976,8.736
13.98,8.984
13.984,8.196
13.988,7.936
13.992,8.6
13.996,8.82
14,8.36
14.004,8.22
14.008,8.52
14.012,8.588
14.016,8.42
14.02,8.352
14.024,8.452
14.028,8.488
14.032,8.416
14.036,8.432
14.04,8.488
14.044,8.488
14.048,8.404
14.052,8.4
14.056,8.548
14.06,8.472
14.064,8.312
14.068,8.372
14.072,8.532
14.076,8.48
14.08,8.336
14.084,8.38
14.088,8.544
14.092,8.484
14.096,8.316
14.1,8.372
14.104,8.568
14.108,8.524
14.112,8.34
14.116,8.368
14.12,8.548
14.124,8.532
14.128,8.34
14.132,8.324
14.136,8.472
14.14,8.532
14.144,8.392
14.148,8.32
14.152,8.48
14.156,8.58
14.16,8.424
14.164,8.308
14.168,8.428
14.172,8.56
14.176,8.452
14.18,8.264
14.184,8.392
14.188,8.592
14.192,8.488
14.196,8.272
14.2,8.332
14.204,8.58
14.208,8.504
14.212,8.292
14.216,8.34
14.22,8.564
14.224,8.516
14.228,8.288
14.232,8.308
14.236,8.508
14.24,8.548
14.244,8.348
14.248,8.284
14.252,8.468
14.256,8.556
14.26,8.4
14.264,8.268
14.268,8.42
14.272,8.6
14.276,8.484
14.28,8.332
14.284,8.472
14.288,8.7
14.292,8.596
14.296,8.364
14.3,8.456
14.304,8.696
14.308,8.62
14.312,8.4
14.316,8.484
14.32,8.676
14.324,8.672
14.328,8.436
14.332,8.432
14.336,8.608
14.34,8.652
14.344,8.432
14.348,8.36
14.352,8.56
14.356,8.656
14.36,8.452
14.364,8.284
14.368,8.412
14.372,8.548
14.376,8.42
14.38,8.184
14.384,8.364
14.388,8.532
14.392,8.412
14.396,8.18
14.4,8.32
14.404,8.56
14.408,8.476
14.412,8.252
14.416,8.272
14.42,8.516
14.424,8.504
14.428,8.268
14.432,8.268
14.436,8.508
14.44,8.5
14.444,8.288
14.448,8.148
14.452,8.276
14.456,8.432
14.46,8.368
14.464,8.44
14.468,9.048
14.472,9.76
14.476,10.108
14.48,10.088
14.484,9.692
14.488,9.296
14.492,8.976
14.496,8.652
14.5,8.712
14.504,8.84
14.508,8.636
14.512,8.352
14.516,8.368
14.52,8.62
14.524,8.588
14.528,8.332
14.532,8.328
14.536,8.532
14.54,8.576
14.544,8.336
14.548,8.24
14.552,8.512
14.556,8.6
14.56,8.388
14.564,8.232
14.568,8.44
14.572,8.58
14.576,8.424
14.58,8.244
14.584,8.376
14.588,8.588
14.592,8.468
14.596,8.252
14.6,8.36
14.604,8.588
14.608,8.512
14.612,8.276
14.616,8.332
14.62,8.576
14.624,8.548
14.628,8.32
14.632,8.308
14.636,8.528
14.64,8.6
14.644,8.36
14.648,8.264
14.652,8.516
14.656,8.608
14.66,8.42
14.664,8.272
14.668,8.5
14.672,8.676
14.676,8.48
14.68,8.248
14.684,8.444
14.688,8.66
14.692,8.552
14.696,8.316
14.7,8.44
14.704,8.688
14.708,8.62
14.712,8.376
14.716,8.44
14.72,8.708
14.724,8.712
14.728,8.484
14.732,8.496
14.736,8.744
14.74,8.792
14.744,8.58
14.748,8.512
14.752,8.76
14.756,8.876
14.76,8.696
14.764,8.552
14.768,8.764
14.772,8.96
14.776,8.816
14.78,8.612
14.784,8.744
14.788,8.964
14.792,8.812
14.796,8.576
14.8,8.648
14.804,8.872
14.808,8.772
14.812,8.488
14.816,8.504
14.82,8.712
14.824,8.652
14.828,8.416
14.832,8.388
14.836,8.604
14.84,8.66
14.844,8.392
14.848,8.292
14.852,8.516
14.856,8.632
14.86,8.424
14.864,8.272
14.868,8.448
14.872,8.624
14.876,8.444
14.88,8.252
14.884,8.396
14.888,8.624
14.892,8.48
14.896,8.256
14.9,8.364
14.904,8.588
14.908,8.524
14.912,8.276
14.916,8.32
14.92,8.572
14.924,8.584
14.928,8.312
14.932,8.284
14.936,8.508
14.94,8.568
14.944,8.348
14.948,8.288
14.952,8.5
14.956,8.596
14.96,8.42
14.964,8.24
14.968,8.424
14.972,8.628
14.976,8.456
14.98,8.268
14.984,8.452
14.988,8.66
14.992,8.492
14.996,8.264
15,8.384
15.004,8.628
15.008,8.54
15.012,8.296
15.016,8.356
15.02,8.612
15.024,8.58
15.028,8.336
15.032,8.34
15.036,8.56
15.04,8.628
15.044,8.416
15.048,8.304
15.052,8.52
15.056,8.628
15.06,8.428
15.064,8.248
15.068,8.46
15.072,8.652
15.076,8.472
15.08,8.28
15.084,8.412
15.088,8.64
15.092,8.488
15.096,8.264
15.1,8.384
15.104,8.648
15.108,8.564
15.112,8.308
15.116,8.34
15.12,8.584
15.124,8.568
15.128,8.34
15.132,8.32
15.136,8.548
15.14,8.588
15.144,8.352
15.148,8.284
15.152,8.52
15.156,8.628
15.16,8.408
15.164,8.28
15.168,8.444
15.172,8.576
15.176,8.44
15.18,8.272
15.184,8.404
15.188,8.636
15.192,8.5
15.196,8.28
15.2,8.356
15.204,8.58
15.208,8.52
15.212,8.28
15.216,8.328
15.22,8.596
15.224,8.572
15.228,8.308
15.232,8.264
15.236,8.504
15.24,8.58
15.244,8.28
15.248,8.224
15.252,8.484
15.256,8.62
15.26,8.392
15.264,8.248
15.268,8.432
15.272,8.6
15.276,8.42
15.28,8.184
15.284,8.352
15.288,8.644
15.292,8.54
15.296,8.284
15.3,8.396
15.304,8.684
15.308,8.608
15.312,8.344
15.316,8.392
15.32,8.68
15.324,8.652
15.328,8.436
15.332,8.444
15.336,8.664
15.34,8.664
15.344,8.472
15.348,8.34
15.352,8.556
15.356,8.716
15.36,8.54
15.364,8.376
15.368,8.512
15.372,8.62
15.376,8.496
15.38,8.284
15.384,8.344
15.388,8.56
15.392,8.432
15.396,8.18
15.4,8.316
15.404,8.508
15.408,8.42
15.412,8.192
15.416,8.26
15.42,8.48
15.424,8.532
15.428,8.26
15.432,8.224
15.436,8.42
15.44,8.464
15.444,8.26
15.448,8.196
15.452,8.38
15.456,8.5
15.46,8.336
15.464,8.092
15.468,8.204
15.472,8.444
15.476,8.332
15.48,8.268
15.484,8.788
15.488,9.544
15.492,10.008
15.496,10.132
15.5,9.848
15.504,9.42
15.508,9.068
15.512,8.744
15.516,8.696
15.52,8.844
15.524,8.696
15.528,8.368
15.532,8.292
15.536,8.536
15.54,8.52
15.544,8.344
15.548,8.296
15.552,8.44
15.556,8.54
15.56,8.344
15.564,8.192
15.568,8.392
15.572,8.544
15.576,8.34
15.58,8.136
15.584,8.332
15.588,8.544
15.592,8.416
15.596,8.164
15.6,8.26
15.604,8.5
15.608,8.416
15.612,8.128
15.616,8.268
15.62,8.516
15.624,8.488
15.628,8.26
15.632,8.26
15.636,8.436
15.64,8.484
15.644,8.296
15.648,8.192
15.652,8.404
15.656,8.476
15.66,8.348
15.664,8.204
15.668,8.392
15.672,8.572
15.676,8.412
15.68,8.212
15.684,8.356
15.688,8.54
15.692,8.448
15.696,8.156
15.7,8.332
15.704,8.628
15.708,8.536
15.712,8.248
15.716,8.344
15.72,8.6
15.724,8.576
15.728,8.38
15.732,8.328
15.736,8.616
15.74,8.724
15.744,8.504
15.748,8.376
15.752,8.604
15.756,8.732
15.76,8.564
15.764,8.468
15.768,8.704
15.772,8.884
15.776,8.672
15.78,8.516
15.784,8.688
15.788,8.94
15.792,8.816
15.796,8.596
15.8,8.728
15.804,8.936
15.808,8.852
15.812,8.608
15.816,8.616
15.82,8.848
15.824,8.804
15.828,8.528
15.832,8.468
15.836,8.668
15.84,8.74
15.844,8.46
15.848,8.336
15.852,8.532
15.856,8.628
15.86,8.428
15.864,8.268
15.868,8.476
15.872,8.624
15.876,8.44
15.88,8.264
15.884,8.384
15.888,8.556
15.892,8.492
15.896,8.248
15.9,8.32
15.904,8.604
15.908,8.488
15.912,8.304
15.916,8.316
15.92,8.528
15.924,8.584
15.928,8.268
15.932,8.264
15.936,8.528
15.94,8.576
15.944,8.348
15.948,8.24
15.952,8.436
15.956,8.632
15.96,8.464
15.964,8.276
15.968,8.464
15.972,8.592
15.976,8.436
15.98,8.224
15.984,8.444
15.988,8.668
15.992,8.492
15.996,8.268
16,8.392
16.004,8.632
16.008,8.552
16.012,8.308
16.016,8.384
16.02,8.624
16.024,8.608
16.028,8.352
16.032,8.308
16.036,8.548
16.04,8.616
16.044,8.412
16.048,8.324
16.052,8.524
16.056,8.64
16.06,8.428
16.064,8.268
16.068,8.436
16.072,8.636
16.076,8.54
16.08,8.3
16.084,8.412
16.088,8.644
16.092,8.52
16.096,8.284
16.1,8.364
16.104,8.624
16.108,8.56
16.112,8.328
16.116,8.364
16.12,8.608
16.124,8.62
16.128,8.304
16.132,8.264
16.136,8.588
16.14,8.64
16.144,8.368
16.148,8.296
16.152,8.52
16.156,8.652
16.16,8.416
16.164,8.268
16.168,8.496
16.172,8.64
16.176,8.448
16.18,8.288
16.184,8.464
16.188,8.66
16.192,8.528
16.196,8.304
16.2,8.404
16.204,8.636
16.208,8.58
16.212,8.292
16.216,8.328
16.22,8.632
16.224,8.588
16.228,8.372
16.232,8.344
16.236,8.588
16.24,8.656
16.244,8.392
16.248,8.288
16.252,8.516
16.256,8.676
16.26,8.472
16.264,8.292
16.268,8.504
16.272,8.7
16.276,8.552
16.28,8.368
16.284,8.544
16.288,8.756
16.292,8.66
16.296,8.404
16.3,8.492
16.304,8.776
16.308,8.708
16.312,8.492
16.316,8.5
16.32,8.752
16.324,8.756
16.328,8.52
16.332,8.456
16.336,8.692
16.34,8.772
16.344,8.564
16.348,8.448
16.352,8.628
16.356,8.772
16.36,8.54
16.364,8.34
16.368,8.452
16.372,8.628
16.376,8.476
16.38,8.268
16.384,8.408
16.388,8.64
16.392,8.548
16.396,8.292
16.4,8.364
16.404,8.612
16.408,8.544
16.412,8.292
16.416,8.292
16.42,8.536
16.424,8.572
16.428,8.332
16.432,8.28
16.436,8.552
16.44,8.608
16.444,8.26
16.448,8.06
16.452,8.34
16.456,8.612
16.46,8.676
16.464,9.076
16.468,9.848
16.472,10.608
16.476,10.684
16.48,9.852
16.484,9.272
16.488,9.312
16.492,9.184
16.496,8.804
16.5,8.72
16.504,8.852
16.508,8.74
16.512,8.448
16.516,8.436
16.52,8.66
16.524,8.652
16.528,8.424
16.532,8.356
16.536,8.6
16.54,8.676
16.544,8.448
16.548,8.328
16.552,8.54
16.556,8.684
16.56,8.464
16.564,8.288
16.568,8.492
16.572,8.688
16.576,8.5
16.58,8.324
16.584,8.444
16.588,8.688
16.592,8.544
16.596,8.304
16.6,8.42
16.604,8.664
16.608,8.604
16.612,8.368
16.616,8.396
16.62,8.612
16.624,8.652
16.628,8.384
16.632,8.364
16.636,8.624
16.64,8.672
16.644,8.448
16.648,8.384
16.652,8.588
16.656,8.72
16.66,8.496
16.664,8.356
16.668,8.556
16.672,8.756
16.676,8.608
16.68,8.384
16.684,8.54
16.688,8.764
16.692,8.624
16.696,8.38
16.7,8.536
16.704,8.776
16.708,8.736
16.712,8.504
16.716,8.532
16.72,8.78
16.724,8.832
16.728,8.608
16.732,8.572
16.736,8.856
16.74,8.948
16.744,8.72
16.748,8.632
16.752,8.896
16.756,9.02
16.76,8.844
16.764,8.704
16.768,8.904
16.772,9.088
16.776,8.912
16.78,8.72
16.784,8.872
16.788,9.068
16.792,8.956
16.796,8.684
16.8,8.732
16.804,8.956
16.808,8.844
16.812,8.636
16.816,8.548
16.82,8.788
16.824,8.764
16.828,8.5
16.832,8.368
16.836,8.652
16.84,8.728
16.844,8.504
16.848,8.412
16.852,8.604
16.856,8.72
16.86,8.508
16.864,8.256
16.868,8.544
16.872,8.74
16.876,8.54
16.88,8.336
16.884,8.492
16.888,8.708
16.892,8.568
16.896,8.336
16.9,8.424
16.904,8.68
16.908,8.628
16.912,8.404
16.916,8.424
16.92,8.676
16.924,8.676
16.928,8.416
16.932,8.384
16.936,8.62
16.94,8.684
16.944,8.48
16.948,8.388
16.952,8.592
16.956,8.72
16.96,8.516
16.964,8.364
16.968,8.52
16.972,8.712
16.976,8.564
16.98,8.356
16.984,8.508
16.988,8.732
16.992,8.636
16.996,8.372
17,8.456
17.004,8.736
17.008,8.652
17.012,8.392
17.016,8.44
17.02,8.68
17.024,8.656
17.028,8.44
17.032,8.412
17.036,8.64
17.04,8.692
17.044,8.508
17.048,8.408
17.052,8.624
17.056,8.736
17.06,8.508
17.064,8.352
17.068,8.536
17.072,8.712
17.076,8.568
17.08,8.356
17.084,8.452
17.088,8.712
17.092,8.592
17.096,8.356
17.1,8.46
17.104,8.712
17.108,8.644
17.112,8.388
17.116,8.412
17.12,8.656
17.124,8.612
17.128,8.42
17.132,8.376
17.136,8.612
17.14,8.692
17.144,8.472
17.148,8.34
17.152,8.58
17.156,8.716
17.16,8.52
17.164,8.36
17.168,8.54
17.172,8.688
17.176,8.564
17.18,8.356
17.184,8.496
17.188,8.704
17.192,8.612
17.196,8.364
17.2,8.468
17.204,8.684
17.208,8.624
17.212,8.368
17.216,8.428
17.22,8.644
17.224,8.696
17.228,8.42
17.232,8.372
17.236,8.62
17.24,8.7
17.244,8.496
17.248,8.432
17.252,8.696
17.256,8.836
17.26,8.628
17.264,8.456
17.268,8.632
17.272,8.828
17.276,8.676
17.28,8.46
17.284,8.616
17.288,8.844
17.292,8.74
17.296,8.504
17.3,8.548
17.304,8.784
17.308,8.72
17.312,8.532
17.316,8.544
17.32,8.76
17.324,8.74
17.328,8.488
17.332,8.452
17.336,8.6
17.34,8.672
17.344,8.456
17.348,8.324
17.352,8.544
17.356,8.688
17.36,8.504
17.364,8.324
17.368,8.496
17.372,8.672
17.376,8.552
17.38,8.312
17.384,8.452
17.388,8.672
17.392,8.58
17.396,8.316
17.4,8.416
17.404,8.664
17.408,8.6
17.412,8.352
17.416,8.296
17.42,8.468
17.424,8.512
17.428,8.404
17.432,8.604
17.436,9.276
17.44,9.912
17.444,10.24
17.448,10.324
17.452,10.084
17.456,9.568
17.46,9.084
17.464,8.82
17.468,8.92
17.472,9.016
17.476,8.74
17.48,8.436
17.484,8.564
17.488,8.784
17.492,8.684
17.496,8.404
17.5,8.464
17.504,8.704
17.508,8.672
17.512,8.376
17.516,8.396
17.52,8.656
17.524,8.696
17.528,8.436
17.532,8.42
17.536,8.652
17.54,8.708
17.544,8.492
17.548,8.36
17.552,8.592
17.556,8.728
17.56,8.552
17.564,8.38
17.568,8.54
17.572,8.752
17.576,8.58
17.58,8.356
17.584,8.484
17.588,8.736
17.592,8.616
17.596,8.372
17.6,8.456
17.604,8.7
17.608,8.684
17.612,8.384
17.616,8.452
17.62,8.676
17.624,8.692
17.628,8.444
17.632,8.428
17.636,8.684
17.64,8.768
17.644,8.508
17.648,8.4
17.652,8.616
17.656,8.804
17.66,8.592
17.664,8.412
17.668,8.62
17.672,8.824
17.676,8.656
17.68,8.476
17.684,8.584
17.688,8.876
17.692,8.764
17.696,8.524
17.7,8.648
17.704,8.912
17.708,8.9
17.712,8.656
17.716,8.68
17.72,8.948
17.724,8.98
17.728,8.776
17.732,8.724
17.736,8.992
17.74,9.076
17.744,8.832
17.748,8.748
17.752,8.984
17.756,9.112
17.76,8.876
17.764,8.688
17.768,8.864
17.772,9.036
17.776,8.844
17.78,8.596
17.784,8.704
17.788,8.896
17.792,8.752
17.796,8.472
17.8,8.552
17.804,8.78
17.808,8.756
17.812,8.48
17.816,8.48
17.82,8.704
17.824,8.736
17.828,8.456
17.832,8.404
17.836,8.64
17.84,8.72
17.844,8.504
17.848,8.408
17.852,8.604
17.856,8.748
17.86,8.552
17.864,8.344
17.868,8.556
17.872,8.764
17.876,8.58
17.88,8.376
17.884,8.5
17.888,8.748
17.892,8.64
17.896,8.392
17.9,8.492
17.904,8.712
17.908,8.664
17.912,8.404
17.916,8.456
17.92,8.7
17.924,8.7
17.928,8.428
17.932,8.392
17.936,8.652
17.94,8.732
17.944,8.524
17.948,8.404
17.952,8.62
17.956,8.776
17.96,8.588
17.964,8.392
17.968,8.568
17.972,8.756
17.976,8.6
17.98,8.404
17.984,8.52
17.988,8.764
17.992,8.656
17.996,8.404
18,8.468
18.004,8.728
18.008,8.696
18.012,8.428
18.016,8.456
18.02,8.688
18.024,8.692
18.028,8.436
18.032,8.4
18.036,8.66
18.04,8.736
18.044,8.508
18.048,8.388
18.052,8.6
18.056,8.756
18.06,8.556
18.064,8.356
18.068,8.552
18.072,8.756
18.076,8.588
18.08,8.368
18.084,8.52
18.088,8.74
18.092,8.652
18.096,8.396
18.1,8.46
18.104,8.708
18.108,8.672
18.112,8.424
18.116,8.436
18.12,8.664
18.124,8.704
18.128,8.46
18.132,8.404
18.136,8.636
18.14,8.736
18.144,8.484
18.148,8.368
18.152,8.596
18.156,8.744
18.16,8.524
18.164,8.364
18.168,8.564
18.172,8.756
18.176,8.576
18.18,8.356
18.184,8.512
18.188,8.712
18.192,8.612
18.196,8.38
18.2,8.476
18.204,8.72
18.208,8.688
18.212,8.404
18.216,8.428
18.22,8.736
18.224,8.768
18.228,8.536
18.232,8.524
18.236,8.752
18.24,8.828
18.244,8.584
18.248,8.472
18.252,8.74
18.256,8.864
18.26,8.68
18.264,8.536
18.268,8.7
18.272,8.892
18.276,8.704
18.28,8.48
18.284,8.628
18.288,8.876
18.292,8.792
18.296,8.52
18.3,8.552
18.304,8.788
18.308,8.74
18.312,8.4
18.316,8.408
18.32,8.684
18.324,8.648
18.328,8.436
18.332,8.364
18.336,8.608
18.34,8.684
18.344,8.448
18.348,8.356
18.352,8.548
18.356,8.672
18.36,8.504
18.364,8.344
18.368,8.54
18.372,8.684
18.376,8.52
18.38,8.336
18.384,8.476
18.388,8.68
18.392,8.556
18.396,8.24
18.4,8.248
18.404,8.544
18.408,8.7
18.412,8.836
18.416,9.392
18.42,10.224
18.424,10.688
18.428,10.216
18.432,9.436
18.436,9.248
18.44,9.248
18.444,8.92
18.448,8.736
18.452,8.884
18.456,8.924
18.46,8.644
18.464,8.46
18.468,8.584
18.472,8.764
18.476,8.612
18.48,8.4
18.484,8.488
18.488,8.768
18.492,8.664
18.496,8.352
18.5,8.408
18.504,8.604
18.508,8.564
18.512,8.308
18.516,8.364
18.52,8.64
18.524,8.64
18.528,8.404
18.532,8.34
18.536,8.6
18.54,8.716
18.544,8.476
18.548,8.264
18.552,8.512
18.556,8.66
18.56,8.46
18.564,8.288
18.568,8.476
18.572,8.736
18.576,8.608
18.58,8.368
18.584,8.528
18.588,8.76
18.592,8.6
18.596,8.348
18.6,8.376
18.604,8.616
18.608,8.596
18.612,8.324
18.616,8.356
18.62,8.632
18.624,8.676
18.628,8.416
18.632,8.384
18.636,8.644
18.64,8.708
18.644,8.488
18.648,8.384
18.652,8.692
18.656,8.808
18.66,8.516
18.664,8.504
18.668,8.776
18.672,8.932
18.676,8.712
18.68,8.4
18.684,8.552
18.688,8.812
18.692,8.708
18.696,8.54
18.7,8.616
18.704,8.92
18.708,8.872
18.712,8.636
18.716,8.632
18.72,8.956
18.724,8.996
18.728,8.712
18.732,8.692
18.736,8.924
18.74,8.972
18.744,8.712
18.748,8.548
18.752,8.716
18.756,8.832
18.76,8.604
18.764,8.384
18.768,8.476
18.772,8.688
18.776,8.556
18.78,8.34
18.784,8.416
18.788,8.612
18.792,8.484
18.796,8.276
18.8,8.312
18.804,8.54
18.808,8.528
18.812,8.26
18.816,8.276
18.82,8.512
18.824,8.516
18.828,8.252
18.832,8.216
18.836,8.428
18.84,8.528
18.844,8.336
18.848,8.232
18.852,8.412
18.856,8.552
18.86,8.392
18.864,8.176
18.868,8.368
18.872,8.592
18.876,8.46
18.88,8.216
18.884,8.344
18.888,8.58
18.892,8.468
18.896,8.236
18.9,8.312
18.904,8.552
18.908,8.536
18.912,8.308
18.916,8.34
18.92,8.54
18.924,8.58
18.928,8.332
18.932,8.24
18.936,8.508
18.94,8.6
18.944,8.392
18.948,8.308
18.952,8.5
18.956,8.632
18.96,8.444
18.964,8.272
18.968,8.444
18.972,8.616
18.976,8.476
18.98,8.276
18.984,8.444
18.988,8.66
18.992,8.536
18.996,8.32
19,8.36
19.004,8.62
19.008,8.572
19.012,8.352
19.016,8.372
19.02,8.62
19.024,8.632
19.028,8.408
19.032,8.328
19.036,8.552
19.04,8.628
19.044,8.428
19.048,8.304
19.052,8.524
19.056,8.644
19.06,8.436
19.064,8.296
19.068,8.472
19.072,8.7
19.076,8.508
19.08,8.332
19.084,8.504
19.088,8.724
19.092,8.596
19.096,8.324
19.1,8.38
19.104,8.64
19.108,8.588
19.112,8.36
19.116,8.42
19.12,8.64
19.124,8.644
19.128,8.412
19.132,8.332
19.136,8.592
19.14,8.668
19.144,8.48
19.148,8.392
19.152,8.62
19.156,8.8
19.16,8.596
19.164,8.396
19.168,8.6
19.172,8.82
19.176,8.68
19.18,8.436
19.184,8.58
19.188,8.828
19.192,8.716
19.196,8.52
19.2,8.556
19.204,8.856
19.208,8.852
19.212,8.548
19.216,8.552
19.22,8.796
19.224,8.856
19.228,8.616
19.232,8.524
19.236,8.732
19.24,8.792
19.244,8.592
19.248,8.436
19.252,8.592
19.256,8.72
19.26,8.596
19.264,8.372
19.268,8.492
19.272,8.76
19.276,8.628
19.28,8.368
19.284,8.52
19.288,8.824
19.292,8.712
19.296,8.452
19.3,8.512
19.304,8.736
19.308,8.72
19.312,8.448
19.316,8.48
19.32,8.756
19.324,8.8
19.328,8.496
19.332,8.32
19.336,8.588
19.34,8.804
19.344,8.756
19.348,9.024
19.352,9.808
19.356,10.528
19.36,10.732
19.364,10.276
19.368,9.692
19.372,9.648
19.376,9.436
19.38,9.124
19.384,9.072
19.388,9.236
19.392,9.072
19.396,8.732
19.4,8.78
19.404,9.032
19.408,9.02
19.412,8.74
19.416,8.76
19.42,9.028
19.424,9.056
19.428,8.76
19.432,8.716
19.436,8.988
19.44,9.128
19.444,8.86
19.448,8.696
19.452,8.928
19.456,9.152
19.46,8.932
19.464,8.72
19.468,9
19.472,9.324
19.476,9.108
19.48,8.788
19.484,8.876
19.488,9.18
19.492,9.148
19.496,8.824
19.5,8.852
19.504,9.196
19.508,9.252
19.512,8.936
19.516,8.888
19.52,9.176
19.524,9.236
19.528,8.98
19.532,8.884
19.536,9.188
19.54,9.36
19.544,9.084
19.548,8.864
19.552,9.076
19.556,9.356
19.56,9.108
19.564,8.864
19.568,9.072
19.572,9.38
19.576,9.224
19.58,8.908
19.584,9.092
19.588,9.364
19.592,9.24
19.596,8.896
19.6,8.992
19.604,9.356
19.608,9.312
19.612,9.016
19.616,9.04
19.62,9.3
19.624,9.344
19.628,9.112
19.632,9.028
19.636,9.296
19.64,9.452
19.644,9.168
19.648,8.976
19.652,9.24
19.656,9.508
19.66,9.284
19.664,9.016
19.668,9.18
19.672,9.464
19.676,9.256
19.68,9.004
19.684,9.052
19.688,9.32
19.692,9.184
19.696,8.896
19.7,8.824
19.704,9.112
19.708,9.072
19.712,8.752
19.716,8.712
19.72,9.02
19.724,9.052
19.728,8.72
19.732,8.62
19.736,8.876
19.74,9.004
19.744,8.764
19.748,8.52
19.752,8.716
19.756,8.932
19.76,8.784
19.764,8.56
19.768,8.76
19.772,8.984
19.776,8.828
19.78,8.572
19.784,8.676
19.788,8.952
19.792,8.844
19.796,8.58
19.8,8.612
19.804,8.868
19.808,8.856
19.812,8.616
19.816,8.544
19.82,8.732
19.824,8.792
19.828,8.616
19.832,8.564
19.836,8.816
19.84,8.924
19.844,8.76
19.848,8.56
19.852,8.776
19.856,8.932
19.86,8.7
19.864,8.504
19.868,8.624
19.872,8.8
19.876,8.684
19.88,8.516
19.884,8.632
19.888,8.812
19.892,8.716
19.896,8.512
19.9,8.556
19.904,8.772
19.908,8.752
19.912,8.452
19.916,8.544
19.92,8.804
19.924,8.78
19.928,8.584
19.932,8.54
19.936,8.696
19.94,8.696
19.944,8.52
19.948,8.488
19.952,8.564
19.956,8.656
19.96,8.432
19.964,8.32
19.968,8.532
19.972,8.716
19.976,8.644
19.98,8.444
19.984,8.56
19.988,8.752
19.992,8.64
19.996,8.416
20,8.472
20.004,8.66
20.008,8.604
20.012,8.384
20.016,8.4
20.02,8.612
20.024,8.644
20.028,8.44
20.032,8.4
20.036,8.584
20.04,8.616
20.044,8.432
20.048,8.372
20.052,8.536
20.056,8.668
20.06,8.512
20.064,8.348
20.068,8.528
20.072,8.696
20.076,8.576
20.08,8.432
20.084,8.568
20.088,8.732
20.092,8.644
20.096,8.452
20.1,8.54
20.104,8.704
20.108,8.66
20.112,8.488
20.116,8.5
20.12,8.708
20.124,8.712
20.128,8.472
20.132,8.42
20.136,8.612
20.14,8.672
20.144,8.496
20.148,8.412
20.152,8.588
20.156,8.644
20.16,8.436
20.164,8.26
20.168,8.392
20.172,8.572
20.176,8.392
20.18,8.24
20.184,8.352
20.188,8.504
20.192,8.432
20.196,8.268
20.2,8.344
20.204,8.504
20.208,8.428
20.212,8.224
20.216,8.236
20.22,8.508
20.224,8.508
20.228,8.284
20.232,8.248
20.236,8.472
20.24,8.536
20.244,8.244
20.248,8.072
20.252,8.284
20.256,8.54
20.26,8.604
20.264,8.916
20.268,9.648
20.272,10.328
20.276,10.476
20.28,9.784
20.284,9.204
20.288,9.152
20.292,8.98
20.296,8.696
20.3,8.652
20.304,8.748
20.308,8.652
20.312,8.42
20.316,8.436
20.32,8.584
20.324,8.624
20.328,8.404
20.332,8.4
20.336,8.56
20.34,8.628
20.344,8.408
20.348,8.328
20.352,8.512
20.356,8.608
20.36,8.46
20.364,8.328
20.368,8.484
20.372,8.656
20.376,8.496
20.38,8.336
20.384,8.456
20.388,8.64
20.392,8.548
20.396,8.344
20.4,8.44
20.404,8.652
20.408,8.608
20.412,8.4
20.416,8.424
20.42,8.608
20.424,8.632
20.428,8.42
20.432,8.412
20.436,8.632
20.44,8.688
20.444,8.472
20.448,8.404
20.452,8.56
20.456,8.712
20.46,8.544
20.464,8.428
20.468,8.584
20.472,8.756
20.476,8.604
20.48,8.436
20.484,8.564
20.488,8.752
20.492,8.648
20.496,8.468
20.5,8.58
20.504,8.792
20.508,8.728
20.512,8.544
20.516,8.548
20.52,8.812
20.524,8.84
20.528,8.648
20.532,8.652
20.536,8.844
20.54,8.932
20.544,8.76
20.548,8.712
20.552,8.9
20.556,9.044
20.56,8.92
20.564,8.796
20.568,8.968
20.572,9.068
20.576,8.932
20.58,8.776
20.584,8.892
20.588,9.06
20.592,8.956
20.596,8.728
20.6,8.732
20.604,8.924
20.608,8.836
20.612,8.608
20.616,8.648
20.62,8.76
20.624,8.764
20.628,8.56
20.632,8.524
20.636,8.668
20.64,8.724
20.644,8.548
20.648,8.46
20.652,8.58
20.656,8.66
20.66,8.512
20.664,8.372
20.668,8.54
20.672,8.684
20.676,8.552
20.68,8.384
20.684,8.504
20.688,8.664
20.692,8.552
20.696,8.392
20.7,8.46
20.704,8.636
20.708,8.588
20.712,8.412
20.716,8.392
20.72,8.58
20.724,8.58
20.728,8.376
20.732,8.36
20.736,8.552
20.74,8.632
20.744,8.46
20.748,8.352
20.752,8.512
20.756,8.612
20.76,8.472
20.764,8.34
20.768,8.472
20.772,8.62
20.776,8.512
20.78,8.36
20.784,8.432
20.788,8.62
20.792,8.536
20.796,8.356
20.8,8.4
20.804,8.604
20.808,8.544
20.812,8.364
20.816,8.4
20.82,8.584
20.824,8.58
20.828,8.372
20.832,8.36
20.836,8.548
20.84,8.58
20.844,8.42
20.848,8.332
20.852,8.516
20.856,8.6
20.86,8.432
20.864,8.312
20.868,8.472
20.872,8.616
20.876,8.5
20.88,8.308
20.884,8.42
20.888,8.584
20.892,8.476
20.896,8.312
20.9,8.352
20.904,8.572
20.908,8.516
20.912,8.3
20.916,8.332
20.92,8.536
20.924,8.544
20.928,8.328
20.932,8.296
20.936,8.488
20.94,8.564
20.944,8.348
20.948,8.228
20.952,8.444
20.956,8.576
20.96,8.404
20.964,8.26
20.968,8.408
20.972,8.572
20.976,8.476
20.98,8.284
20.984,8.436
20.988,8.668
20.992,8.572
20.996,8.364
21,8.436
21.004,8.6
21.008,8.584
21.012,8.376
21.016,8.432
21.02,8.632
21.024,8.656
21.028,8.436
21.032,8.376
21.036,8.552
21.04,8.628
21.044,8.452
21.048,8.348
21.052,8.54
21.056,8.644
21.06,8.44
21.064,8.26
21.068,8.372
21.072,8.528
21.076,8.384
21.08,8.172
21.084,8.296
21.088,8.476
21.092,8.4
21.096,8.18
21.1,8.2
21.104,8.452
21.108,8.436
21.112,8.2
21.116,8.184
21.12,8.404
21.124,8.448
21.128,8.212
21.132,8.148
21.136,8.356
21.14,8.44
21.144,8.244
21.148,8.088
21.152,8.232
21.156,8.288
21.16,8.128
21.164,8.08
21.168,8.452
21.172,9.088
21.176,9.524
21.18,9.904
21.184,10.368
21.188,10.164
21.192,9.248
21.196,8.788
21.2,8.784
21.204,8.888
21.208,8.72
21.212,8.376
21.216,8.272
21.22,8.48
21.224,8.504
21.228,8.276
21.232,8.2
21.236,8.384
21.24,8.448
21.244,8.264
21.248,8.108
21.252,8.284
21.256,8.42
21.26,8.28
21.264,8.092
21.268,8.26
21.272,8.436
21.276,8.304
21.28,8.092
21.284,8.208
21.288,8.42
21.292,8.348
21.296,8.096
21.3,8.156
21.304,8.4
21.308,8.344
21.312,8.112
21.316,8.136
21.32,8.372
21.324,8.392
21.328,8.18
21.332,8.116
21.336,8.316
21.34,8.408
21.344,8.188
21.348,8.076
21.352,8.296
21.356,8.4
21.36,8.244
21.364,8.112
21.368,8.272
21.372,8.44
21.376,8.3
21.38,8.1
21.384,8.208
21.388,8.428
21.392,8.364
21.396,8.152
21.4,8.232
21.404,8.428
21.408,8.42
21.412,8.192
21.416,8.228
21.42,8.456
21.424,8.508
21.428,8.308
21.432,8.248
21.436,8.508
21.44,8.58
21.444,8.416
21.448,8.324
21.452,8.5
21.456,8.68
21.46,8.544
21.464,8.388
21.468,8.56
21.472,8.76
21.476,8.656
21.48,8.428
21.484,8.552
21.488,8.736
21.492,8.696
21.496,8.42
21.5,8.436
21.504,8.688
21.508,8.616
21.512,8.328
21.516,8.3
21.52,8.476
21.524,8.492
21.528,8.256
21.532,8.16
21.536,8.348
21.54,8.416
21.544,8.204
21.548,8.04
21.552,8.236
21.556,8.392
21.56,8.244
21.564,8.024
21.568,8.18
21.572,8.376
21.576,8.244
21.58,8.024
21.584,8.124
21.588,8.36
21.592,8.276
21.596,8.052
21.6,8.092
21.604,8.336
21.608,8.304
21.612,8.092
21.616,8.052
21.62,8.268
21.624,8.344
21.628,8.108
21.632,8.02
21.636,8.236
21.64,8.364
21.644,8.152
21.648,8.024
21.652,8.212
21.656,8.368
21.66,8.2
21.664,8.024
21.668,8.16
21.672,8.38
21.676,8.248
21.68,8.048
21.684,8.152
21.688,8.376
21.692,8.296
21.696,8.064
21.7,8.088
21.704,8.356
21.708,8.32
21.712,8.116
21.716,8.064
21.72,8.3
21.724,8.34
21.728,8.116
21.732,8.056
21.736,8.248
21.74,8.356
21.744,8.204
21.748,8.104
21.752,8.228
21.756,8.372
21.76,8.224
21.764,8.016
21.768,8.168
21.772,8.372
21.776,8.24
21.78,8.036
21.784,8.148
21.788,8.336
21.792,8.264
21.796,8.048
21.8,8.088
21.804,8.332
21.808,8.304
21.812,8.052
21.816,8.052
21.82,8.3
21.824,8.324
21.828,8.124
21.832,8.044
21.836,8.224
21.84,8.356
21.844,8.192
21.848,8.016
21.852,8.2
21.856,8.348
21.86,8.232
21.864,8.04
21.868,8.176
21.872,8.364
21.876,8.26
21.88,8.06
21.884,8.2
21.888,8.436
21.892,8.388
21.896,8.132
21.9,8.176
21.904,8.408
21.908,8.38
21.912,8.18
21.916,8.228
21.92,8.48
21.924,8.504
21.928,8.272
21.932,8.216
21.936,8.368
21.94,8.46
21.944,8.296
21.948,8.176
21.952,8.396
21.956,8.512
21.96,8.32
21.964,8.1
21.968,8.256
21.972,8.4
21.976,8.276
21.98,7.992
21.984,8.108
21.988,8.3
21.992,8.248
21.996,8.004
22,8.064
22.004,8.256
22.008,8.24
22.012,8.012
22.016,8.012
22.02,8.244
22.024,8.284
22.028,8.084
22.032,8.004
22.036,8.208
22.04,8.272
22.044,8.088
22.048,7.988
22.052,8.148
22.056,8.196
22.06,7.968
22.064,7.908
22.068,8.256
22.072,8.816
22.076,9.292
22.08,9.684
22.084,10.268
22.088,10.388
22.092,9.472
22.096,8.768
22.1,8.728
22.104,8.876
22.108,8.704
22.112,8.352
22.116,8.188
22.12,8.392
22.124,8.452
22.128,8.2
22.132,8.072
22.136,8.296
22.14,8.384
22.144,8.18
22.148,8.044
22.152,8.176
22.156,8.396
22.16,8.212
22.164,8.028
22.168,8.14
22.172,8.308
22.176,8.184
22.18,8.036
22.184,8.128
22.188,8.364
22.192,8.252
22.196,8.024
22.2,8.056
22.204,8.292
22.208,8.308
22.212,8.064
22.216,8.024
22.22,8.268
22.224,8.32
22.228,8.124
22.232,8.06
22.236,8.244
22.24,8.34
22.244,8.168
22.248,8.06
22.252,8.216
22.256,8.376
22.26,8.228
22.264,8.036
22.268,8.18
22.272,8.348
22.276,8.256
22.28,8.072
22.284,8.188
22.288,8.392
22.292,8.356
22.296,8.1
22.3,8.208
22.304,8.42
22.308,8.392
22.312,8.168
22.316,8.192
22.32,8.408
22.324,8.504
22.328,8.292
22.332,8.208
22.336,8.416
22.34,8.512
22.344,8.384
22.348,8.264
22.352,8.492
22.356,8.636
22.36,8.484
22.364,8.348
22.368,8.544
22.372,8.764
22.376,8.628
22.38,8.4
22.384,8.52
22.388,8.724
22.392,8.672
22.396,8.408
22.4,8.496
22.404,8.652
22.408,8.62
22.412,8.368
22.416,8.34
22.42,8.48
22.424,8.492
22.428,8.288
22.432,8.16
22.436,8.348
22.44,8.468
22.444,8.224
22.448,8.02
22.452,8.224
22.456,8.408
22.46,8.252
22.464,8.06
22.468,8.184
22.472,8.396
22.476,8.252
22.48,8.06
22.484,8.148
22.488,8.336
22.492,8.308
22.496,8.068
22.5,8.112
22.504,8.356
22.508,8.364
22.512,8.12
22.516,8.096
22.52,8.308
22.524,8.392
22.528,8.152
22.532,8.064
22.536,8.288
22.54,8.4
22.544,8.224
22.548,8.044
22.552,8.228
22.556,8.412
22.56,8.232
22.564,8.048
22.568,8.224
22.572,8.448
22.576,8.332
22.58,8.072
22.584,8.16
22.588,8.42
22.592,8.352
22.596,8.124
22.6,8.136
22.604,8.364
22.608,8.36
22.612,8.168
22.616,8.152
22.62,8.328
22.624,8.388
22.628,8.204
22.632,8.092
22.636,8.328
22.64,8.436
22.644,8.232
22.648,8.1
22.652,8.284
22.656,8.464
22.66,8.284
22.664,8.088
22.668,8.224
22.672,8.412
22.676,8.336
22.68,8.108
22.684,8.212
22.688,8.428
22.692,8.336
22.696,8.116
22.7,8.144
22.704,8.368
22.708,8.372
22.712,8.136
22.716,8.116
22.72,8.356
22.724,8.388
22.728,8.2
22.732,8.12
22.736,8.316
22.74,8.4
22.744,8.236
22.748,8.064
22.752,8.252
22.756,8.428
22.76,8.304
22.764,8.136
22.768,8.216
22.772,8.436
22.776,8.296
22.78,8.096
22.784,8.188
22.788,8.404
22.792,8.364
22.796,8.14
22.8,8.208
22.804,8.436
22.808,8.484
22.812,8.244
22.816,8.264
22.82,8.48
22.824,8.504
22.828,8.3
22.832,8.2
22.836,8.42
22.84,8.592
22.844,8.38
22.848,8.216
22.852,8.412
22.856,8.552
22.86,8.38
22.864,8.208
22.868,8.356
22.872,8.568
22.876,8.392
22.88,8.18
22.884,8.272
22.888,8.44
22.892,8.336
22.896,8.104
22.9,8.112
22.904,8.352
22.908,8.36
22.912,8.088
22.916,8.092
22.92,8.328
22.924,8.384
22.928,8.14
22.932,8.032
22.936,8.268
22.94,8.388
22.944,8.192
22.948,8.048
22.952,8.228
22.956,8.38
22.96,8.244
22.964,8.024
22.968,8.148
22.972,8.296
22.976,8.108
22.98,7.94
22.984,8.176
22.988,8.732
22.992,9.168
22.996,9.5
23,10.084
23.004,10.44
23.008,9.852
23.012,9.048
23.016,8.784
23.02,8.948
23.024,8.86
23.028,8.488
23.032,8.272
23.036,8.404
23.04,8.504
23.044,8.276
23.048,8.14
23.052,8.328
23.056,8.5
23.06,8.296
23.064,8.136
23.068,8.232
23.072,8.428
23.076,8.312
23.08,8.116
23.084,8.192
23.088,8.404
23.092,8.372
23.096,8.12
23.1,8.164
23.104,8.356
23.108,8.384
23.112,8.168
23.116,8.112
23.12,8.396
23.124,8.46
23.128,8.216
23.132,8.132
23.136,8.324
23.14,8.472
23.144,8.256
23.148,8.1
23.152,8.296
23.156,8.472
23.16,8.352
23.164,8.104
23.168,8.248
23.172,8.46
23.176,8.348
23.18,8.148
23.184,8.216
23.188,8.484
23.192,8.416
23.196,8.18
23.2,8.216
23.204,8.46
23.208,8.464
23.212,8.216
23.216,8.192
23.22,8.42
23.224,8.54
23.228,8.34
23.232,8.264
23.236,8.452
23.24,8.592
23.244,8.392
23.248,8.256
23.252,8.464
23.256,8.664
23.26,8.548
23.264,8.348
23.268,8.488
23.272,8.752
23.276,8.644
23.28,8.432
23.284,8.552
23.288,8.784
23.292,8.768
23.296,8.532
23.3,8.552
23.304,8.812
23.308,8.816
23.312,8.588
23.316,8.524
23.32,8.708
23.324,8.756
23.328,8.504
23.332,8.36
23.336,8.556
23.34,8.644
23.344,8.416
23.348,8.212
23.352,8.388
23.356,8.532
23.36,8.38
23.364,8.172
23.368,8.272
23.372,8.508
23.376,8.384
23.38,8.128
23.384,8.212
23.388,8.46
23.392,8.412
23.396,8.168
23.4,8.192
23.404,8.428
23.408,8.436
23.412,8.224
23.416,8.144
23.42,8.364
23.424,8.44
23.428,8.228
23.432,8.136
23.436,8.352
23.44,8.484
23.444,8.284
23.448,8.104
23.452,8.292
23.456,8.48
23.46,8.308
23.464,8.108
23.468,8.28
23.472,8.5
23.476,8.388
23.48,8.148
23.484,8.232
23.488,8.46
23.492,8.4
23.496,8.176
23.5,8.208
23.504,8.464
23.508,8.48
23.512,8.248
23.516,8.184
23.52,8.4
23.524,8.496
23.528,8.284
23.532,8.152
23.536,8.376
23.54,8.504
23.544,8.316
23.548,8.164
23.552,8.336
23.556,8.508
23.56,8.34
23.564,8.096
23.568,8.276
23.572,8.508
23.576,8.42
23.58,8.152
23.584,8.224
23.588,8.464
23.592,8.424
23.596,8.164
23.6,8.196
23.604,8.436
23.608,8.468
23.612,8.224
23.616,8.172
23.62,8.384
23.624,8.44
23.628,8.232
23.632,8.112
23.636,8.348
23.64,8.496
23.644,8.268
23.648,8.116
23.652,8.308
23.656,8.488
23.66,8.34
23.664,8.104
23.668,8.264
23.672,8.464
23.676,8.36
23.68,8.116
23.684,8.216
23.688,8.452
23.692,8.38
23.696,8.16
23.7,8.172
23.704,8.42
23.708,8.436
23.712,8.2
23.716,8.156
23.72,8.348
23.724,8.44
23.728,8.228
23.732,8.136
23.736,8.332
23.74,8.52
23.744,8.348
23.748,8.212
23.752,8.388
23.756,8.6
23.76,8.428
23.764,8.212
23.768,8.34
23.772,8.592
23.776,8.508
23.78,8.276
23.784,8.344
23.788,8.528
23.792,8.512
23.796,8.316
23.8,8.296
23.804,8.52
23.808,8.54
23.812,8.336
23.816,8.28
23.82,8.456
23.824,8.544
23.828,8.308
23.832,8.168
23.836,8.316
23.84,8.42
23.844,8.224
23.848,8.068
23.852,8.252
23.856,8.448
23.86,8.28
23.864,8.068
23.868,8.2
23.872,8.424
23.876,8.32
23.88,8.088
23.884,8.14
23.888,8.44
23.892,8.372
23.896,8.096
23.9,8.104
23.904,8.36
23.908,8.404
23.912,8.148
23.916,8.076
23.92,8.184
23.924,8.296
23.928,8.2
23.932,8.308
23.936,8.968
23.94,9.668
23.944,10
23.948,10.132
23.952,9.924
23.956,9.452
23.96,8.996
23.964,8.652
23.968,8.66
23.972,8.788
23.976,8.528
23.98,8.24
23.984,8.264
23.988,8.476
23.992,8.444
23.996,8.176
24,8.192
24.004,8.412
24.008,8.42
24.012,8.192
24.016,8.136
24.02,8.372
24.024,8.44
24.028,8.212
24.032,8.08
24.036,8.304
24.04,8.44
24.044,8.26
24.048,8.096
24.052,8.284
24.056,8.472
24.06,8.332
24.064,8.092
24.068,8.24
24.072,8.448
24.076,8.34
24.08,8.088
24.084,8.152
24.088,8.396
24.092,8.408
24.096,8.168
24.1,8.184
24.104,8.404
24.108,8.432
24.112,8.176
24.116,8.12
24.12,8.368
24.124,8.472
24.128,8.236
24.132,8.132
24.136,8.352
24.14,8.484
24.144,8.316
24.148,8.16
24.152,8.312
24.156,8.524
24.16,8.364
24.164,8.14
24.168,8.308
24.172,8.536
24.176,8.456
24.18,8.232
24.184,8.3
24.188,8.548
24.192,8.54
24.196,8.3
24.2,8.36
24.204,8.592
24.208,8.644
24.212,8.432
24.216,8.372
24.22,8.616
24.224,8.728
24.228,8.544
24.232,8.424
24.236,8.624
24.24,8.812
24.244,8.656
24.248,8.484
24.252,8.652
24.256,8.832
24.26,8.652
24.264,8.456
24.268,8.532
24.272,8.72
24.276,8.576
24.28,8.32
24.284,8.36
24.288,8.572
24.292,8.5
24.296,8.264
24.3,8.228
24.304,8.444
24.308,8.468
24.312,8.248
24.316,8.168
24.32,8.396
24.324,8.432
24.328,8.204
24.332,8.108
24.336,8.324
24.34,8.456
24.344,8.248
24.348,8.088
24.352,8.264
24.356,8.48
24.36,8.324
24.364,8.088
24.368,8.228
24.372,8.432
24.376,8.368
24.38,8.12
24.384,8.164
24.388,8.424
24.392,8.392
24.396,8.14
24.4,8.144
24.404,8.392
24.408,8.412
24.412,8.188
24.416,8.128
24.42,8.36
24.424,8.44
24.428,8.212
24.432,8.128
24.436,8.312
24.44,8.452
24.444,8.288
24.448,8.116
24.452,8.284
24.456,8.496
24.46,8.328
24.464,8.084
24.468,8.252
24.472,8.472
24.476,8.372
24.48,8.136
24.484,8.208
24.488,8.448
24.492,8.408
24.496,8.128
24.5,8.132
24.504,8.4
24.508,8.444
24.512,8.18
24.516,8.12
24.52,8.348
24.524,8.444
24.528,8.236
24.532,8.112
24.536,8.312
24.54,8.452
24.544,8.256
24.548,8.088
24.552,8.248
24.556,8.464
24.56,8.284
24.564,8.092
24.568,8.18
24.572,8.4
24.576,8.336
24.58,8.108
24.584,8.188
24.588,8.42
24.592,8.376
24.596,8.112
24.6,8.14
24.604,8.384
24.608,8.392
24.612,8.16
24.616,8.116
24.62,8.336
24.624,8.42
24.628,8.168
24.632,8.068
24.636,8.256
24.64,8.424
24.644,8.244
24.648,8.084
24.652,8.232
24.656,8.416
24.66,8.268
24.664,8.024
24.668,8.148
24.672,8.396
24.676,8.316
24.68,8.072
24.684,8.192
24.688,8.44
24.692,8.424
24.696,8.184
24.7,8.224
24.704,8.448
24.708,8.452
24.712,8.228
24.716,8.196
24.72,8.44
24.724,8.552
24.728,8.312
24.732,8.18
24.736,8.352
24.74,8.552
24.744,8.364
24.748,8.18
24.752,8.34
24.756,8.548
24.76,8.388
24.764,8.156
24.768,8.232
24.772,8.468
24.776,8.372
24.78,8.056
24.784,8.112
24.788,8.364
24.792,8.336
24.796,8.084
24.8,8.056
24.804,8.296
24.808,8.328
24.812,8.084
24.816,8.032
24.82,8.26
24.824,8.368
24.828,8.132
24.832,8.036
24.836,8.244
24.84,8.416
24.844,8.192
24.848,8
24.852,8.16
24.856,8.376
24.86,8.228
24.864,7.92
24.868,7.94
24.872,8.224
24.876,8.312
24.88,8.3
24.884,8.872
24.888,9.724
24.892,10.264
24.896,10.284
24.9,9.728
24.904,9.268
24.908,9.076
24.912,8.776
24.916,8.572
24.92,8.644
24.924,8.608
24.928,8.32
24.932,8.164
24.936,8.336
24.94,8.468
24.944,8.268
24.948,8.08
24.952,8.228
24.956,8.416
24.96,8.272
24.964,8.068
24.968,8.188
24.972,8.396
24.976,8.3
24.98,8.072
24.984,8.108
24.988,8.396
24.992,8.344
24.996,8.104
25,8.088
25.004,8.336
25.008,8.34
25.012,8.128
25.016,8.06
25.02,8.256
25.024,8.364
25.028,8.144
25.032,8.072
25.036,8.256
25.04,8.388
25.044,8.188
25.048,8.044
25.052,8.216
25.056,8.432
25.06,8.28
25.064,8.04
25.068,8.216
25.072,8.416
25.076,8.328
25.08,8.06
25.084,8.172
25.088,8.392
25.092,8.4
25.096,8.132
25.1,8.104
25.104,8.376
25.108,8.432
25.112,8.188
25.116,8.136
25.12,8.392
25.124,8.496
25.128,8.292
25.132,8.152
25.136,8.404
25.14,8.584
25.144,8.4
25.148,8.248
25.152,8.416
25.156,8.64
25.16,8.5
25.164,8.316
25.168,8.452
25.172,8.692
25.176,8.636
25.18,8.436
25.184,8.5
25.188,8.752
25.192,8.748
25.196,8.484
25.2,8.464
25.204,8.696
25.208,8.728
25.212,8.456
25.216,8.356
25.22,8.552
25.224,8.632
25.228,8.42
25.232,8.232
25.236,8.416
25.24,8.528
25.244,8.316
25.248,8.116
25.252,8.264
25.256,8.436
25.26,8.276
25.264,8.08
25.268,8.184
25.272,8.4
25.276,8.308
25.28,8.06
25.284,8.128
25.288,8.348
25.292,8.304
25.296,8.096
25.3,8.068
25.304,8.332
25.308,8.36
25.312,8.164
25.316,8.092
25.32,8.276
25.324,8.372
25.328,8.156
25.332,8.04
25.336,8.256
25.34,8.404
25.344,8.192
25.348,8.08
25.352,8.204
25.356,8.404
25.36,8.276
25.364,8.092
25.368,8.184
25.372,8.38
25.376,8.324
25.38,8.104
25.384,8.128
25.388,8.352
25.392,8.348
25.396,8.112
25.4,8.108
25.404,8.344
25.408,8.388
25.412,8.152
25.416,8.08
25.42,8.296
25.424,8.384
25.428,8.18
25.432,8.052
25.436,8.272
25.44,8.4
25.444,8.248
25.448,8.064
25.452,8.176
25.456,8.404
25.46,8.24
25.464,8.064
25.468,8.184
25.472,8.42
25.476,8.308
25.48,8.084
25.484,8.124
25.488,8.364
25.492,8.32
25.496,8.076
25.5,8.088
25.504,8.32
25.508,8.36
25.512,8.14
25.516,8.072
25.52,8.26
25.524,8.324
25.528,8.148
25.532,8.012
25.536,8.192
25.54,8.372
25.544,8.188
25.548,8.084
25.552,8.208
25.556,8.348
25.56,8.244
25.564,8.032
25.568,8.124
25.572,8.332
25.576,8.24
25.58,8.068
25.584,8.144
25.588,8.332
25.592,8.304
25.596,8.088
25.6,8.064
25.604,8.272
25.608,8.316
25.612,8.108
25.616,8.06
25.62,8.272
25.624,8.352
25.628,8.136
25.632,8.016
25.636,8.196
25.64,8.408
25.644,8.28
25.648,8.112
25.652,8.248
25.656,8.452
25.66,8.284
25.664,8.104
25.668,8.2
25.672,8.464
25.676,8.368
25.68,8.188
25.684,8.224
25.688,8.42
25.692,8.408
25.696,8.176
25.7,8.144
25.704,8.36
25.708,8.416
25.712,8.184
25.716,8.148
25.72,8.348
25.724,8.396
25.728,8.2
25.732,8.032
25.736,8.172
25.74,8.312
25.744,8.116
25.748,7.984
25.752,8.108
25.756,8.308
25.76,8.172
25.764,7.992
25.768,8.068
25.772,8.296
25.776,8.196
25.78,7.984
25.784,8.024
25.788,8.252
25.792,8.22
25.796,8.012
25.8,8.004
25.804,8.196
25.808,8.276
25.812,8.044
25.816,7.896
25.82,8.044
25.824,8.188
25.828,8.096
25.832,8.192
25.836,8.844
25.84,9.6
25.844,10.004
25.848,10.084
25.852,9.796
25.856,9.328
25.86,8.968
25.864,8.624
25.868,8.596
25.872,8.664
25.876,8.44
25.88,8.148
25.884,8.176
25.888,8.384
25.892,8.336
25.896,8.1
25.9,8.056
25.904,8.28
25.908,8.32
25.912,8.076
25.916,8.024
25.92,8.232
25.924,8.312
25.928,8.1
25.932,8
25.936,8.196
25.94,8.348
25.944,8.164
25.948,7.956
25.952,8.136
25.956,8.348
25.96,8.22
25.964,7.996
25.968,8.112
25.972,8.34
25.976,8.256
25.98,8.012
25.984,8.056
25.988,8.348
25.992,8.308
25.996,8.072
26,8.032
26.004,8.312
26.008,8.324
26.012,8.1
26.016,8.008
26.02,8.272
26.024,8.36
26.028,8.168
26.032,8.04
26.036,8.26
26.04,8.424
26.044,8.208
26.048,8.048
26.052,8.188
26.056,8.428
26.06,8.276
26.064,8.08
26.068,8.208
26.072,8.412
26.076,8.36
26.08,8.124
26.084,8.208
26.088,8.452
26.092,8.464
26.096,8.24
26.1,8.264
26.104,8.516
26.108,8.56
26.112,8.352
26.116,8.296
26.12,8.556
26.124,8.664
26.128,8.464
26.132,8.348
26.136,8.588
26.14,8.76
26.144,8.564
26.148,8.38
26.152,8.552
26.156,8.724
26.16,8.604
26.164,8.38
26.168,8.476
26.172,8.64
26.176,8.536
26.18,8.268
26.184,8.244
26.188,8.496
26.192,8.472
26.196,8.192
26.2,8.172
26.204,8.384
26.208,8.412
26.212,8.14
26.216,8.06
26.22,8.288
26.224,8.388
26.228,8.168
26.232,8.036
26.236,8.228
26.24,8.388
26.244,8.196
26.248,8.036
26.252,8.228
26.256,8.416
26.26,8.22
26.264,8.008
26.268,8.148
26.272,8.376
26.276,8.304
26.28,8.048
26.284,8.096
26.288,8.356
26.292,8.316
26.296,8.06
26.3,8.076
26.304,8.328
26.308,8.404
26.312,8.152
26.316,8.064
26.32,8.3
26.324,8.408
26.328,8.176
26.332,8.044
26.336,8.244
26.34,8.428
26.344,8.252
26.348,8.056
26.352,8.204
26.356,8.424
26.36,8.3
26.364,8.064
26.368,8.188
26.372,8.412
26.376,8.336
26.38,8.06
26.384,8.136
26.388,8.384
26.392,8.34
26.396,8.108
26.4,8.12
26.404,8.352
26.408,8.384
26.412,8.128
26.416,8.068
26.42,8.308
26.424,8.384
26.428,8.192
26.432,8.064
26.436,8.248
26.44,8.42
26.444,8.236
26.448,8.044
26.452,8.208
26.456,8.404
26.46,8.244
26.464,8.036
26.468,8.152
26.472,8.384
26.476,8.304
26.48,8.008
26.484,8.1
26.488,8.344
26.492,8.332
26.496,8.072
26.5,8.096
26.504,8.304
26.508,8.368
26.512,8.14
26.516,8.048
26.52,8.312
26.524,8.4
26.528,8.184
26.532,8.032
26.536,8.22
26.54,8.38
26.544,8.208
26.548,8.044
26.552,8.196
26.556,8.38
26.56,8.252
26.564,8.02
26.568,8.14
26.572,8.388
26.576,8.328
26.58,8.088
26.584,8.116
26.588,8.356
26.592,8.34
26.596,8.072
26.6,8.096
26.604,8.324
26.608,8.416
26.612,8.22
26.616,8.156
26.62,8.416
26.624,8.516
26.628,8.256
26.632,8.148
26.636,8.34
26.64,8.528
26.644,8.344
26.648,8.16
26.652,8.32
26.656,8.52
26.66,8.404
26.664,8.152
26.668,8.244
26.672,8.448
26.676,8.408
26.68,8.168
26.684,8.224
26.688,8.428
26.692,8.396
26.696,8.112
26.7,8.104
26.704,8.3
26.708,8.304
26.712,8.076
26.716,7.992
26.72,8.248
26.724,8.328
26.728,8.148
26.732,7.988
26.736,8.22
26.74,8.36
26.744,8.192
26.748,7.976
26.752,8.136
26.756,8.352
26.76,8.212
26.764,7.976
26.768,8.108
26.772,8.328
26.776,8.216
26.78,7.98
26.784,7.944
26.788,8.164
26.792,8.252
26.796,8.168
26.8,8.484
26.804,9.268
26.808,9.868
26.812,10.088
26.816,9.868
26.82,9.456
26.824,9.12
26.828,8.788
26.832,8.512
26.836,8.596
26.84,8.604
26.844,8.36
26.848,8.116
26.852,8.244
26.856,8.436
26.86,8.284
26.864,8.044
26.868,8.14
26.872,8.372
26.876,8.276
26.88,8.032
26.884,8.076
26.888,8.312
26.892,8.32
26.896,8.068
26.9,8.04
26.904,8.292
26.908,8.344
26.912,8.1
26.916,8.02
26.92,8.252
26.924,8.344
26.928,8.168
26.932,7.988
26.936,8.212
26.94,8.364
26.944,8.216
26.948,7.988
26.952,8.164
26.956,8.376
26.96,8.26
26.964,8.056
26.968,8.132
26.972,8.348
26.976,8.288
26.98,8.04
26.984,8.12
26.988,8.332
26.992,8.34
26.996,8.096
27,8.096
27.004,8.352
27.008,8.388
27.012,8.128
27.016,8.084
27.02,8.292
27.024,8.372
27.028,8.22
27.032,8.092
27.036,8.304
27.04,8.46
27.044,8.288
27.048,8.108
27.052,8.312
27.056,8.528
27.06,8.408
27.064,8.188
27.068,8.324
27.072,8.564
27.076,8.504
27.08,8.292
27.084,8.364
27.088,8.604
27.092,8.608
27.096,8.38
27.1,8.4
27.104,8.64
27.108,8.736
27.112,8.508
27.116,8.4
27.12,8.636
27.124,8.7
27.128,8.5
27.132,8.36
27.136,8.504
27.14,8.632
27.144,8.416
27.148,8.18
27.152,8.308
27.156,8.492
27.16,8.356
27.164,8.112
27.168,8.188
27.172,8.432
27.176,8.332
27.18,8.052
27.184,8.076
27.188,8.336
27.192,8.332
27.196,8.092
27.2,8.048
27.204,8.312
27.208,8.356
27.212,8.108
27.216,8.02
27.22,8.244
27.224,8.348
27.228,8.14
27.232,8.004
27.236,8.208
27.24,8.36
27.244,8.2
27.248,7.996
27.252,8.16
27.256,8.36
27.26,8.26
27.264,8.008
27.268,8.12
27.272,8.364
27.276,8.3
27.28,8.052
27.284,8.1
27.288,8.32
27.292,8.336
27.296,8.068
27.3,8.048
27.304,8.264
27.308,8.328
27.312,8.108
27.316,8.056
27.32,8.256
27.324,8.352
27.328,8.16
27.332,8.032
27.336,8.228
27.34,8.404
27.344,8.196
27.348,8.032
27.352,8.168
27.356,8.408
27.36,8.252
27.364,8.024
27.368,8.092
27.372,8.344
27.376,8.296
27.38,8.052
27.384,8.084
27.388,8.352
27.392,8.328
27.396,8.092
27.4,8.028
27.404,8.272
27.408,8.332
27.412,8.12
27.416,8.032
27.42,8.24
27.424,8.348
27.428,8.14
27.432,7.996
27.436,8.212
27.44,8.356
27.444,8.156
27.448,7.952
27.452,8.108
27.456,8.36
27.46,8.228
27.464,7.972
27.468,8.08
27.472,8.316
27.476,8.264
27.48,7.992
27.484,8.048
27.488,8.272
27.492,8.252
27.496,8.02
27.5,8.016
27.504,8.232
27.508,8.288
27.512,8.084
27.516,7.992
27.52,8.208
27.524,8.328
27.528,8.136
27.532,7.944
27.536,8.128
27.54,8.3
27.544,8.144
27.548,7.956
27.552,8.116
27.556,8.312
27.56,8.192
27.564,7.996
27.568,8.092
27.572,8.352
27.576,8.324
27.58,8.072
27.584,8.132
27.588,8.388
27.592,8.368
27.596,8.148
27.6,8.092
27.604,8.336
27.608,8.42
27.612,8.196
27.616,8.096
27.62,8.336
27.624,8.452
27.628,8.208
27.632,8.064
27.636,8.252
27.64,8.392
27.644,8.24
27.648,8.004
27.652,8.168
27.656,8.368
27.66,8.224
27.664,7.92
27.668,7.988
27.672,8.216
27.676,8.2
27.68,7.932
27.684,7.984
27.688,8.232
27.692,8.212
27.696,7.96
27.7,7.932
27.704,8.176
27.708,8.216
27.712,8.004
27.716,7.924
27.72,8.112
27.724,8.264
27.728,8.04
27.732,7.9
27.736,8.096
27.74,8.216
27.744,7.972
27.748,7.736
27.752,7.972
27.756,8.336
27.76,8.588
27.764,8.9
27.768,9.564
27.772,10.22
27.776,9.98
27.78,9.152
27.784,8.756
27.788,8.884
27.792,8.748
27.796,8.4
27.8,8.212
27.804,8.364
27.808,8.38
27.812,8.088
27.816,7.98
27.82,8.2
27.824,8.324
27.828,8.12
27.832,7.932
27.836,8.128
27.84,8.292
27.844,8.092
27.848,7.88
27.852,8.044
27.856,8.248
27.86,8.112
27.864,7.936
27.868,8.048
27.872,8.24
27.876,8.168
27.88,7.924
27.884,7.98
27.888,8.212
27.892,8.228
27.896,7.992
27.9,7.948
27.904,8.172
27.908,8.224
27.912,8.028
27.916,7.94
27.92,8.152
27.924,8.264
27.928,8.068
27.932,7.912
27.936,8.088
27.94,8.272
27.944,8.108
27.948,7.908
27.952,8.076
27.956,8.292
27.96,8.168
27.964,7.908
27.968,8.028
27.972,8.276
27.976,8.228
27.98,7.992
27.984,8.04
27.988,8.268
27.992,8.296
27.996,8.068
28,8.044
28.004,8.244
28.008,8.34
28.012,8.12
28.016,8.04
28.02,8.248
28.024,8.408
28.028,8.24
28.032,8.104
28.036,8.304
28.04,8.508
28.044,8.388
28.048,8.172
28.052,8.316
28.056,8.576
28.06,8.488
28.064,8.272
28.068,8.372
28.072,8.624
28.076,8.576
28.08,8.308
28.084,8.324
28.088,8.552
28.092,8.532
28.096,8.244
28.1,8.188
28.104,8.388
28.108,8.42
28.112,8.168
28.116,8.044
28.12,8.22
28.124,8.336
28.128,8.132
28.132,7.948
28.136,8.132
28.14,8.288
28.144,8.12
28.148,7.904
28.152,8.04
28.156,8.252
28.16,8.128
28.164,7.928
28.168,7.996
28.172,8.212
28.176,8.196
28.18,7.912
28.184,7.944
28.188,8.2
28.192,8.168
28.196,7.944
28.2,7.924
28.204,8.168
28.208,8.212
28.212,7.984
28.216,7.904
28.22,8.148
28.224,8.248
28.228,8.032
28.232,7.884
28.236,8.096
28.24,8.236
28.244,8.096
28.248,7.888
28.252,8.06
28.256,8.264
28.26,8.136
28.264,7.904
28.268,8.016
28.272,8.252
28.276,8.196
28.28,7.944
28.284,7.964
28.288,8.204
28.292,8.216
28.296,7.992
28.3,7.94
28.304,8.164
28.308,8.236
28.312,8.016
28.316,7.932
28.32,8.128
28.324,8.244
28.328,8.064
28.332,7.912
28.336,8.076
28.34,8.244
28.344,8.104
28.348,7.9
28.352,8.044
28.356,8.268
28.36,8.164
28.364,7.916
28.368,7.972
28.372,8.188
28.376,8.172
28.38,7.912
28.384,7.952
28.388,8.176
28.392,8.184
28.396,7.956
28.4,7.912
28.404,8.088
28.408,8.204
28.412,7.992
28.416,7.884
28.42,8.084
28.424,8.204
28.428,8.02
28.432,7.88
28.436,8.032
28.44,8.224
28.444,8.056
28.448,7.884
28.452,8
28.456,8.188
28.46,8.1
28.464,7.872
28.468,7.952
28.472,8.18
28.476,8.104
28.48,7.876
28.484,7.912
28.488,8.14
28.492,8.184
28.496,7.952
28.5,7.912
28.504,8.112
28.508,8.184
28.512,7.968
28.516,7.868
28.52,8.108
28.524,8.264
28.528,8.032
28.532,7.892
28.536,8.112
28.54,8.284
28.544,8.176
28.548,7.94
28.552,8.112
28.556,8.32
28.56,8.22
28.564,7.968
28.568,8.096
28.572,8.332
28.576,8.248
28.58,8.028
28.584,8.048
28.588,8.284
28.592,8.284
28.596,8.048
28.6,8.02
28.604,8.244
28.608,8.256
28.612,8.036
28.616,7.916
28.62,8.104
28.624,8.18
28.628,8.004
28.632,7.84
28.636,8.016
28.64,8.16
28.644,7.996
28.648,7.828
28.652,7.956
28.656,8.144
28.66,8.08
28.664,7.84
28.668,7.912
28.672,8.144
28.676,8.108
28.68,7.832
28.684,7.884
28.688,8.124
28.692,8.148
28.696,7.92
28.7,7.832
28.704,7.952
28.708,8.004
28.712,7.828
28.716,7.884
28.72,8.432
28.724,9.116
28.728,9.508
28.732,9.824
28.736,9.892
28.74,9.452
28.744,8.852
28.748,8.524
28.752,8.516
28.756,8.592
28.76,8.376
28.764,8.044
28.768,8.06
28.772,8.272
28.776,8.216
28.78,7.96
28.784,7.964
28.788,8.148
28.792,8.2
28.796,7.992
28.8,7.908
28.804,8.112
28.808,8.18
28.812,7.968
28.816,7.856
28.82,8.064
28.824,8.192
28.828,8.004
28.832,7.844
28.836,8.024
28.84,8.212
28.844,8.06
28.848,7.828
28.852,7.972
28.856,8.18
28.86,8.12
28.864,7.872
28.868,7.944
28.872,8.192
28.876,8.12
28.88,7.896
28.884,7.92
28.888,8.164
28.892,8.168
28.896,7.952
28.9,7.896
28.904,8.136
28.908,8.204
28.912,7.968
28.916,7.872
28.92,8.064
28.924,8.22
28.928,8.048
28.932,7.9
28.936,8.084
28.94,8.284
28.944,8.1
28.948,7.912
28.952,8.064
28.956,8.268
28.96,8.18
28.964,7.968
28.968,8.08
28.972,8.308
28.976,8.3
28.98,8.06
28.984,8.096
28.988,8.344
28.992,8.376
28.996,8.2
29,8.176
29.004,8.408
29.008,8.516
29.012,8.3
29.016,8.2
29.02,8.412
29.024,8.552
29.028,8.376
29.032,8.22
29.036,8.392
29.04,8.616
29.044,8.424
29.048,8.216
29.052,8.32
29.056,8.528
29.06,8.372
29.064,8.096
29.068,8.168
29.072,8.376
29.076,8.304
29.08,8.032
29.084,8.032
29.088,8.24
29.092,8.228
29.096,7.98
29.1,7.928
29.104,8.152
29.108,8.224
29.112,8.004
29.116,7.872
29.12,8.068
29.124,8.22
29.128,8.028
29.132,7.88
29.136,8.02
29.14,8.224
29.144,8.108
29.148,7.88
29.152,7.996
29.156,8.212
29.16,8.136
29.164,7.884
29.168,7.956
29.172,8.172
29.176,8.18
29.18,7.952
29.184,7.964
29.188,8.144
29.192,8.2
29.196,7.952
29.2,7.92
29.204,8.128
29.208,8.252
29.212,8.024
29.216,7.928
29.22,8.128
29.224,8.256
29.228,8.092
29.232,7.888
29.236,8.048
29.24,8.252
29.244,8.136
29.248,7.912
29.252,8.04
29.256,8.252
29.26,8.152
29.264,7.928
29.268,7.992
29.272,8.236
29.276,8.188
29.28,7.96
29.284,7.976
29.288,8.184
29.292,8.188
29.296,7.96
29.3,7.928
29.304,8.124
29.308,8.232
29.312,8.02
29.316,7.904
29.32,8.104
29.324,8.228
29.328,8.052
29.332,7.896
29.336,8.068
29.34,8.236
29.344,8.1
29.348,7.892
29.352,8.028
29.356,8.264
29.36,8.12
29.364,7.92
29.368,7.964
29.372,8.196
29.376,8.18
29.38,7.916
29.384,7.948
29.388,8.18
29.392,8.188
29.396,7.972
29.4,7.924
29.404,8.136
29.408,8.204
29.412,8
29.416,7.912
29.42,8.092
29.424,8.252
29.428,8.048
29.432,7.884
29.436,8.056
29.44,8.224
29.444,8.084
29.448,7.896
29.452,8.004
29.456,8.22
29.46,8.116
29.464,7.908
29.468,7.964
29.472,8.188
29.476,8.148
29.48,7.9
29.484,7.936
29.488,8.172
29.492,8.204
29.496,8.02
29.5,7.976
29.504,8.2
29.508,8.32
29.512,8.112
29.516,7.988
29.52,8.212
29.524,8.344
29.528,8.176
29.532,7.956
29.536,8.176
29.54,8.368
29.544,8.212
29.548,8.044
29.552,8.144
29.556,8.32
29.56,8.232
29.564,8.012
29.568,8.1
29.572,8.304
29.576,8.24
29.58,8.008
29.584,7.972
29.588,8.168
29.592,8.172
29.596,7.916
29.6,7.864
29.604,8.056
29.608,8.168
29.612,7.928
29.616,7.832
29.62,8.024
29.624,8.192
29.628,7.996
29.632,7.82
29.636,7.996
29.64,8.192
29.644,8.044
29.648,7.78
29.652,7.936
29.656,8.156
29.66,8.072
29.664,7.852
29.668,7.892
29.672,7.96
29.676,7.944
29.68,7.816
29.684,8.012
29.688,8.6
29.692,9.212
29.696,9.56
29.7,9.856
29.704,9.84
29.708,9.356
29.712,8.732
29.716,8.484
29.72,8.536
29.724,8.58
29.728,8.276
29.732,8.02
29.736,8.176
29.74,8.276
29.744,8.16
29.748,7.932
29.752,8.052
29.756,8.264
29.76,8.156
29.764,7.896
29.768,7.984
29.772,8.204
29.776,8.18
29.78,7.944
29.784,7.928
29.788,8.148
29.792,8.212
29.796,7.956
29.8,7.928
29.804,8.148
29.808,8.244
29.812,8.008
29.816,7.892
29.82,8.092
29.824,8.256
29.828,8.068
29.832,7.916
29.836,8.064
29.84,8.256
29.844,8.112
29.848,7.9
29.852,8.012
29.856,8.232
29.86,8.136
29.864,7.948
29.868,8.004
29.872,8.224
29.876,8.18
29.88,7.984
29.884,7.992
29.888,8.224
29.892,8.244
29.896,8.04
29.9,7.944
29.904,8.196
29.908,8.292
29.912,8.096
29.916,7.936
29.92,8.164
29.924,8.324
29.928,8.172
29.932,7.996
29.936,8.184
29.94,8.384
29.944,8.26
29.948,8.072
29.952,8.212
29.956,8.432
29.96,8.38
29.964,8.164
29.968,8.252
29.972,8.528
29.976,8.5
29.98,8.292
29.984,8.292
29.988,8.548
29.992,8.592
29.996,8.38
30,8.316
30.004,8.58
30.008,8.664
30.012,8.428
30.016,8.264
30.02,8.444
30.024,8.584
30.028,8.376
30.032,8.168
30.036,8.336
30.04,8.452
30.044,8.312
30.048,8.096
30.052,8.176
30.056,8.352
30.06,8.28
30.064,8.024
30.068,8.088
30.072,8.288
30.076,8.284
30.08,8.02
30.084,8.008
30.088,8.24
30.092,8.248
30.096,8.012
30.1,7.968
30.104,8.212
30.108,8.328
30.112,8.116
30.116,7.944
30.12,8.14
30.124,8.292
30.128,8.104
30.132,7.952
30.136,8.148
30.14,8.352
30.144,8.188
30.148,7.988
30.152,8.092
30.156,8.28
30.16,8.212
30.164,7.956
30.168,8.02
30.172,8.264
30.176,8.252
30.18,8.044
30.184,8.004
30.188,8.296
30.192,8.3
30.196,8.06
30.2,8
30.204,8.212
30.208,8.332
30.212,8.12
30.216,7.992
30.22,8.184
30.224,8.34
30.228,8.164
30.232,7.984
30.236,8.152
30.24,8.328
30.244,8.224
30.248,8.008
30.252,8.112
30.256,8.328
30.26,8.216
30.264,8.004
30.268,8.048
30.272,8.336
30.276,8.3
30.28,8.052
30.284,8.008
30.288,8.284
30.292,8.292
30.296,8.064
30.3,7.988
30.304,8.244
30.308,8.344
30.312,8.132
30.316,7.988
30.32,8.156
30.324,8.328
30.328,8.148
30.332,7.972
30.336,8.096
30.34,8.304
30.344,8.204
30.348,7.996
30.352,8.052
30.356,8.324
30.36,8.224
30.364,7.984
30.368,8
30.372,8.288
30.376,8.236
30.38,8.04
30.384,7.972
30.388,8.232
30.392,8.276
30.396,8.052
30.4,7.968
30.404,8.172
30.408,8.296
30.412,8.068
30.416,7.952
30.42,8.144
30.424,8.332
30.428,8.144
30.432,7.964
30.436,8.096
30.44,8.316
30.444,8.172
30.448,7.964
30.452,8.024
30.456,8.312
30.46,8.248
30.464,8.036
30.468,8.052
30.472,8.316
30.476,8.348
30.48,8.104
30.484,8.072
30.488,8.336
30.492,8.404
30.496,8.16
30.5,8.084
30.504,8.3
30.508,8.452
30.512,8.196
30.516,8.1
30.52,8.292
30.524,8.46
30.528,8.236
30.532,8.088
30.536,8.228
30.54,8.448
30.544,8.284
30.548,8.092
30.552,8.104
30.556,8.36
30.56,8.192
30.564,7.944
30.568,7.976
30.572,8.26
30.576,8.236
30.58,7.976
30.584,7.944
30.588,8.22
30.592,8.268
30.596,8.036
30.6,7.96
30.604,8.16
30.608,8.28
30.612,8.06
30.616,7.948
30.62,8.136
30.624,8.292
30.628,8.148
30.632,7.944
30.636,8.012
30.64,8.184
30.644,7.992
30.648,7.856
30.652,8.016
30.656,8.544
30.66,8.956
30.664,9.304
30.668,9.808
30.672,10.184
30.676,9.652
30.68,8.824
30.684,8.604
30.688,8.772
30.692,8.676
30.696,8.348
30.7,8.144
30.704,8.312
30.708,8.404
30.712,8.192
30.716,8.02
30.72,8.164
30.724,8.376
30.728,8.192
30.732,8.016
30.736,8.1
30.74,8.316
30.744,8.18
30.748,7.956
30.752,8.052
30.756,8.308
30.76,8.24
30.764,8.008
30.768,8.028
30.772,8.288
30.776,8.24
30.78,8.028
30.784,7.984
30.788,8.204
30.792,8.276
30.796,8.072
30.8,8.032
30.804,8.208
30.808,8.288
30.812,8.072
30.816,7.988
30.82,8.156
30.824,8.352
30.828,8.188
30.832,8.032
30.836,8.12
30.84,8.356
30.844,8.232
30.848,7.988
30.852,8.096
30.856,8.34
30.86,8.276
30.864,8.048
30.868,8.052
30.872,8.348
30.876,8.328
30.88,8.092
30.884,8.06
30.888,8.356
30.892,8.376
30.896,8.152
30.9,8.108
30.904,8.312
30.908,8.444
30.912,8.248
30.916,8.148
30.92,8.308
30.924,8.528
30.928,8.316
30.932,8.2
30.936,8.348
30.94,8.612
30.944,8.5
30.948,8.3
30.952,8.328
30.956,8.624
30.96,8.616
30.964,8.356
30.968,8.388
30.972,8.636
30.976,8.656
30.98,8.392
30.984,8.328
30.988,8.52
30.992,8.604
30.996,8.38
31,8.24
31.004,8.432
31.008,8.516
31.012,8.276
31.016,8.136
31.02,8.244
31.024,8.416
31.028,8.22
31.032,8.004
31.036,8.108
31.04,8.332
31.044,8.204
31.048,7.992
31.052,8.044
31.056,8.308
31.06,8.204
31.064,7.932
31.068,8.004
31.072,8.26
31.076,8.248
31.08,8.024
31.084,8.004
31.088,8.18
31.092,8.284
31.096,8.028
31.1,7.928
31.104,8.156
31.108,8.24
31.112,7.988
31.116,7.916
31.12,8.12
31.124,8.324
31.128,8.156
31.132,7.916
31.136,8.016
31.14,8.264
31.144,8.156
31.148,7.908
31.152,7.976
31.156,8.216
31.16,8.172
31.164,7.948
31.168,7.984
31.172,8.22
31.176,8.152
31.18,7.816
31.184,7.884
31.188,8.152
31.192,8.212
31.196,8.008
31.2,7.912
31.204,8.056
31.208,8.228
31.212,8.032
31.216,7.952
31.22,8.016
31.224,8.1
31.228,7.98
31.232,7.88
31.236,8.024
31.24,8.248
31.244,8.104
31.248,7.88
31.252,7.892
31.256,8.16
31.26,8.064
31.264,7.844
31.268,7.876
31.272,8.088
31.276,8.104
31.28,7.828
31.284,7.8
31.288,8.076
31.292,8.136
31.296,7.86
31.3,7.796
31.304,7.976
31.308,8.116
31.312,7.988
31.316,7.876
31.32,8.02
31.324,8.172
31.328,7.944
31.332,7.66
31.336,7.856
31.34,8.196
31.344,8.012
31.348,7.728
31.352,7.788
31.356,8.06
31.36,8.044
31.364,7.768
31.368,7.836
31.372,8.06
31.376,8.096
31.38,7.852
31.384,7.828
31.388,8.072
31.392,8.176
31.396,7.992
31.4,7.808
31.404,7.876
31.408,8.04
31.412,7.9
31.416,7.664
31.42,7.78
31.424,8.096
31.428,7.924
31.432,7.628
31.436,7.784
31.44,8.188
31.444,8.152
31.448,7.916
31.452,8.02
31.456,8.192
31.46,8.108
31.464,7.812
31.468,7.884
31.472,8.128
31.476,8.348
31.48,8.092
31.484,7.892
31.488,8.04
31.492,8.156
31.496,7.948
31.5,7.764
31.504,7.936
31.508,8.188
31.512,7.996
31.516,7.88
31.52,7.94
31.524,8.284
31.528,8.104
31.532,7.668
31.536,7.572
31.54,7.912
31.544,7.884
31.548,7.724
31.552,7.84
31.556,8.004
31.56,7.908
31.564,7.776
31.568,7.8
31.572,7.964
31.576,8.036
31.58,7.78
31.584,7.72
31.588,7.876
31.592,7.956
31.596,7.736
31.6,7.732
31.604,7.808
31.608,8
31.612,7.736
31.616,7.464
31.62,7.56
31.624,7.836
31.628,7.856
31.632,8.004
31.636,8.676
31.64,9.464
31.644,9.728
31.648,9.26
31.652,8.636
31.656,8.54
31.66,8.552
31.664,8.208
31.668,8.168
31.672,8.292
31.676,8.152
31.68,7.856
31.684,7.788
31.688,8.032
31.692,8.124
31.696,7.88
31.7,7.764
31.704,7.916
31.708,7.984
31.712,7.736
31.716,7.684
31.72,7.884
31.724,8.124
31.728,7.948
31.732,7.748
31.736,7.872
31.74,8.072
31.744,7.936
31.748,7.672
31.752,7.728
31.756,8.02
31.76,8.004
31.764,7.78
31.768,7.816
31.772,8.068
31.776,8.04
31.78,7.784
31.784,7.796
31.788,7.988
31.792,8.024
31.796,7.756
31.8,7.76
31.804,7.988
31.808,8.12
31.812,7.908
31.816,7.792
31.82,7.912
31.824,8.088
31.828,7.96
31.832,7.804
31.836,7.832
31.84,8.088
31.844,8
31.848,7.768
31.852,7.844
31.856,8.04
31.86,8.008
31.864,7.756
31.868,7.816
31.872,8.104
31.876,8.148
31.88,7.844
31.884,7.864
31.888,8.128
31.892,8.22
31.896,7.98
31.9,7.932
31.904,8.108
31.908,8.272
31.912,8.1
31.916,8.016
31.92,8.168
31.924,8.36
31.928,8.208
31.932,8.072
31.936,8.168
31.94,8.428
31.944,8.328
31.948,8.112
31.952,8.168
31.956,8.432
31.96,8.34
31.964,8.064
31.968,8.092
31.972,8.36
31.976,8.296
31.98,8.024
31.984,7.944
31.988,8.14
31.992,8.204
31.996,7.988
32,7.872
32.004,8.004
32.008,8.18
32.012,7.988
32.016,7.88
32.02,7.936
32.024,8.156
32.028,8.008
32.032,7.804
32.036,7.924
32.04,8.188
32.044,8.068
32.048,7.828
32.052,7.884
32.056,8.128
32.06,8.088
32.064,7.832
32.068,7.86
32.072,8.096
32.076,8.148
32.08,7.896
32.084,7.896
32.088,8.076
32.092,8.148
32.096,7.94
32.1,7.884
32.104,8.056
32.108,8.22
32.112,8.044
32.116,7.876
32.12,8.044
32.124,8.24
32.128,8.08
32.132,7.88
32.136,8.02
32.14,8.24
32.144,8.104
32.148,7.892
32.152,7.984
32.156,8.232
32.16,8.188
32.164,7.92
32.168,7.968
32.172,8.224
32.176,8.224
32.18,7.984
32.184,7.964
32.188,8.164
32.192,8.244
32.196,8.008
32.2,7.948
32.204,8.12
32.208,8.276
32.212,8.092
32.216,7.904
32.22,8.084
32.224,8.292
32.228,8.128
32.232,7.944
32.236,8.052
32.24,8.264
32.244,8.192
32.248,7.972
32.252,8.064
32.256,8.312
32.26,8.212
32.264,7.996
32.268,8.032
32.272,8.276
32.276,8.28
32.28,8.052
32.284,8.004
32.288,8.184
32.292,8.3
32.296,8.072
32.3,8
32.304,8.124
32.308,8.304
32.312,8.08
32.316,7.972
32.32,8.132
32.324,8.356
32.328,8.148
32.332,7.984
32.336,8.072
32.34,8.332
32.344,8.224
32.348,7.992
32.352,8.072
32.356,8.292
32.36,8.284
32.364,7.988
32.368,8.052
32.372,8.256
32.376,8.292
32.38,8.028
32.384,8.036
32.388,8.272
32.392,8.36
32.396,8.156
32.4,8.088
32.404,8.284
32.408,8.42
32.412,8.196
32.416,8.1
32.42,8.244
32.424,8.476
32.428,8.316
32.432,8.116
32.436,8.212
32.44,8.456
32.444,8.376
32.448,8.12
32.452,8.216
32.456,8.448
32.46,8.38
32.464,8.132
32.468,8.164
32.472,8.368
32.476,8.384
32.48,8.108
32.484,8.072
32.488,8.216
32.492,8.312
32.496,8.056
32.5,7.984
32.504,8.156
32.508,8.348
32.512,8.116
32.516,7.96
32.52,8.104
32.524,8.352
32.528,8.164
32.532,7.968
32.536,8.06
32.54,8.332
32.544,8.204
32.548,7.968
32.552,8.036
32.556,8.268
32.56,8.252
32.564,8
32.568,7.96
32.572,8.048
32.576,8.128
32.58,8.012
32.584,8.252
32.588,8.904
32.592,9.608
32.596,9.944
32.6,10.032
32.604,9.564
32.608,9.072
32.612,8.724
32.616,8.552
32.62,8.572
32.624,8.664
32.628,8.388
32.632,8.124
32.636,8.176
32.64,8.408
32.644,8.304
32.648,8.044
32.652,8.128
32.656,8.312
32.66,8.324
32.664,8.048
32.668,8.064
32.672,8.268
32.676,8.324
32.68,8.064
32.684,8.036
32.688,8.244
32.692,8.34
32.696,8.112
32.7,8.028
32.704,8.184
32.708,8.364
32.712,8.16
32.716,8.004
32.72,8.144
32.724,8.356
32.728,8.188
32.732,8.008
32.736,8.128
32.74,8.368
32.744,8.264
32.748,8.004
32.752,8.116
32.756,8.324
32.76,8.308
32.764,8.068
32.768,8.104
32.772,8.288
32.776,8.332
32.78,8.096
32.784,8.068
32.788,8.28
32.792,8.38
32.796,8.148
32.8,8.08
32.804,8.264
32.808,8.452
32.812,8.26
32.816,8.088
32.82,8.236
32.824,8.46
32.828,8.328
32.832,8.128
32.836,8.268
32.84,8.516
32.844,8.44
32.848,8.224
32.852,8.292
32.856,8.552
32.86,8.56
32.864,8.336
32.868,8.36
32.872,8.556
32.876,8.64
32.88,8.464
32.884,8.424
32.888,8.64
32.892,8.74
32.896,8.54
32.9,8.476
32.904,8.616
32.908,8.808
32.912,8.592
32.916,8.404
32.92,8.5
32.924,8.676
32.928,8.488
32.932,8.256
32.936,8.316
32.94,8.552
32.944,8.424
32.948,8.176
32.952,8.232
32.956,8.424
32.96,8.38
32.964,8.092
32.968,8.156
32.972,8.328
32.976,8.356
32.98,8.128
32.984,8.1
32.988,8.276
32.992,8.392
32.996,8.144
33,8.036
33.004,8.192
33.008,8.388
33.012,8.184
33.016,8.028
33.02,8.184
33.024,8.372
33.028,8.22
33.032,8.012
33.036,8.172
33.04,8.4
33.044,8.292
33.048,8.068
33.052,8.132
33.056,8.356
33.06,8.32
33.064,8.068
33.068,8.12
33.072,8.296
33.076,8.384
33.08,8.144
33.084,8.096
33.088,8.252
33.092,8.392
33.096,8.172
33.1,8.08
33.104,8.236
33.108,8.412
33.112,8.224
33.116,8.088
33.12,8.216
33.124,8.412
33.128,8.276
33.132,8.068
33.136,8.188
33.14,8.412
33.144,8.336
33.148,8.04
33.152,8.164
33.156,8.388
33.16,8.356
33.164,8.104
33.168,8.132
33.172,8.308
33.176,8.36
33.18,8.14
33.184,8.112
33.188,8.3
33.192,8.412
33.196,8.18
33.2,8.048
33.204,8.204
33.208,8.396
33.212,8.204
33.216,8.072
33.22,8.208
33.224,8.392
33.228,8.236
33.232,8.024
33.236,8.164
33.24,8.38
33.244,8.296
33.248,8.064
33.252,8.14
33.256,8.34
33.26,8.32
33.264,8.088
33.268,8.124
33.272,8.304
33.276,8.36
33.28,8.132
33.284,8.116
33.288,8.272
33.292,8.388
33.296,8.168
33.3,8.068
33.304,8.212
33.308,8.4
33.312,8.208
33.316,8.04
33.32,8.176
33.324,8.396
33.328,8.256
33.332,8.04
33.336,8.18
33.34,8.4
33.344,8.34
33.348,8.108
33.352,8.228
33.356,8.452
33.36,8.456
33.364,8.188
33.368,8.208
33.372,8.384
33.376,8.492
33.38,8.26
33.384,8.212
33.388,8.408
33.392,8.54
33.396,8.328
33.4,8.196
33.404,8.348
33.408,8.488
33.412,8.328
33.416,8.168
33.42,8.324
33.424,8.5
33.428,8.34
33.432,8.112
33.436,8.208
33.44,8.376
33.444,8.268
33.448,8.004
33.452,8.116
33.456,8.308
33.46,8.296
33.464,8.06
33.468,8.064
33.472,8.248
33.476,8.316
33.48,8.084
33.484,8.032
33.488,8.224
33.492,8.372
33.496,8.128
33.5,8.008
33.504,8.188
33.508,8.376
33.512,8.184
33.516,8
33.52,8.084
33.524,8.172
33.528,8.044
33.532,7.956
33.536,8.324
33.54,8.992
33.544,9.488
33.548,9.808
33.552,10.188
33.556,9.928
33.56,9.24
33.564,8.752
33.568,8.7
33.572,8.748
33.576,8.704
33.58,8.324
33.584,8.196
33.588,8.364
33.592,8.476
33.596,8.212
33.6,8.1
33.604,8.272
33.608,8.428
33.612,8.216
33.616,8.08
33.62,8.188
33.624,8.404
33.628,8.236
33.632,8.04
33.636,8.188
33.64,8.404
33.644,8.304
33.648,8.076
33.652,8.144
33.656,8.324
33.66,8.352
33.664,8.076
33.668,8.104
33.672,8.296
33.676,8.344
33.68,8.132
33.684,8.056
33.688,8.248
33.692,8.376
33.696,8.172
33.7,8.072
33.704,8.232
33.708,8.44
33.712,8.244
33.716,8.06
33.72,8.156
33.724,8.388
33.728,8.26
33.732,8.036
33.736,8.196
33.74,8.408
33.744,8.328
33.748,8.084
33.752,8.156
33.756,8.38
33.76,8.364
33.764,8.14
33.768,8.172
33.772,8.376
33.776,8.44
33.78,8.208
33.784,8.164
33.788,8.36
33.792,8.516
33.796,8.288
33.8,8.188
33.804,8.388
33.808,8.564
33.812,8.424
33.816,8.248
33.82,8.412
33.824,8.624
33.828,8.508
33.832,8.332
33.836,8.484
33.84,8.672
33.844,8.636
33.848,8.38
33.852,8.456
33.856,8.66
33.86,8.684
33.864,8.424
33.868,8.424
33.872,8.616
33.876,8.64
33.88,8.316
33.884,8.272
33.888,8.424
33.892,8.528
33.896,8.26
33.9,8.12
33.904,8.304
33.908,8.44
33.912,8.276
33.916,8.044
33.92,8.216
33.924,8.388
33.928,8.232
33.932,8.024
33.936,8.172
33.94,8.368
33.944,8.292
33.948,8.04
33.952,8.104
33.956,8.324
33.96,8.292
33.964,8.076
33.968,8.06
33.972,8.256
33.976,8.36
33.98,8.124
33.984,8.056
33.988,8.276
33.992,8.368
33.996,8.164
34,8.028
34.004,8.224
34.008,8.384
34.012,8.22
34.016,8.044
34.02,8.18
34.024,8.364
34.028,8.208
34.032,8.036
34.036,8.168
34.04,8.4
34.044,8.308
34.048,8.06
34.052,8.128
34.056,8.352
34.06,8.34
34.064,8.108
34.068,8.112
34.072,8.344
34.076,8.344
34.08,8.128
34.084,8.072
34.088,8.308
34.092,8.404
34.096,8.152
34.1,8.06
34.104,8.24
34.108,8.392
34.112,8.224
34.116,8.016
34.12,8.204
34.124,8.4
34.128,8.276
34.132,8.064
34.136,8.164
34.14,8.388
34.144,8.3
34.148,8.056
34.152,8.132
34.156,8.372
34.16,8.328
34.164,8.056
34.168,8.072
34.172,8.324
34.176,8.356
34.18,8.148
34.184,8.072
34.188,8.268
34.192,8.36
34.196,8.164
34.2,8.056
34.204,8.228
34.208,8.38
34.212,8.188
34.216,8.036
34.22,8.212
34.224,8.412
34.228,8.264
34.232,8.036
34.236,8.152
34.24,8.376
34.244,8.252
34.248,8.024
34.252,8.104
34.256,8.34
34.26,8.312
34.264,8.08
34.268,8.076
34.272,8.312
34.276,8.36
34.28,8.096
34.284,8.056
34.288,8.312
34.292,8.404
34.296,8.176
34.3,8.04
34.304,8.248
34.308,8.42
34.312,8.26
34.316,8.104
34.32,8.292
34.324,8.504
34.328,8.36
34.332,8.128
34.336,8.256
34.34,8.492
34.344,8.416
34.348,8.188
34.352,8.248
34.356,8.488
34.36,8.492
34.364,8.204
34.368,8.168
34.372,8.412
34.376,8.456
34.38,8.232
34.384,8.148
34.388,8.364
34.392,8.452
34.396,8.156
34.4,8.008
34.404,8.188
34.408,8.364
34.412,8.148
34.416,7.984
34.42,8.128
34.424,8.344
34.428,8.232
34.432,8.04
34.436,8.108
34.44,8.34
34.444,8.236
34.448,7.992
34.452,8.072
34.456,8.308
34.46,8.28
34.464,8.064
34.468,8.072
34.472,8.288
34.476,8.332
34.48,8
34.484,7.852
34.488,8.076
34.492,8.272
34.496,8.256
34.5,8.556
34.504,9.248
34.508,9.964
34.512,10.132
34.516,9.588
34.52,9.088
34.524,8.96
34.528,8.784
34.532,8.464
34.536,8.464
34.54,8.556
34.544,8.38
34.548,8.14
34.552,8.196
34.556,8.408
34.56,8.38
34.564,8.104
34.568,8.06
34.572,8.312
34.576,8.34
34.58,8.116
34.584,8.056
34.588,8.276
34.592,8.364
34.596,8.168
34.6,8.04
34.604,8.22
34.608,8.368
34.612,8.192
34.616,7.98
34.62,8.16
34.624,8.388
34.628,8.24
34.632,8.016
34.636,8.132
34.64,8.36
34.644,8.252
34.648,8.024
34.652,8.112
34.656,8.348
34.66,8.336
34.664,8.068
34.668,8.048
34.672,8.316
34.676,8.356
34.68,8.14
34.684,8.052
34.688,8.28
34.692,8.4
34.696,8.184
34.7,8.1
34.704,8.304
34.708,8.448
34.712,8.256
34.716,8.064
34.72,8.204
34.724,8.44
34.728,8.32
34.732,8.084
34.736,8.248
34.74,8.464
34.744,8.392
34.748,8.164
34.752,8.244
34.756,8.5
34.76,8.44
34.764,8.232
34.768,8.256
34.772,8.504
34.776,8.58
34.78,8.392
34.784,8.3
34.788,8.56
34.792,8.66
34.796,8.496
34.8,8.38
34.804,8.588
34.808,8.752
34.812,8.564
34.816,8.38
34.82,8.524
34.824,8.712
34.828,8.56
34.832,8.332
34.836,8.42
34.84,8.64
34.844,8.52
34.848,8.248
34.852,8.26
34.856,8.452
34.86,8.416
34.864,8.16
34.868,8.168
34.872,8.352
34.876,8.412
34.88,8.148
34.884,8.08
34.888,8.328
34.892,8.456
34.896,8.188
34.9,8.02
34.904,8.184
34.908,8.376
34.912,8.208
34.916,8.028
34.92,8.192
34.924,8.372
34.928,8.244
34.932,8.032
34.936,8.168
34.94,8.4
34.944,8.304
34.948,8.072
34.952,8.128
34.956,8.364
34.96,8.336
34.964,8.1
34.968,8.092
34.972,8.312
34.976,8.392
34.98,8.18
34.984,8.092
34.988,8.296
34.992,8.408
34.996,8.188
35,8.064
35.004,8.28
35.008,8.448
35.012,8.276
35.016,8.116
35.02,8.26
35.024,8.46
35.028,8.308
35.032,8.084
35.036,8.192
35.04,8.452
35.044,8.388
35.048,8.112
35.052,8.18
35.056,8.416
35.06,8.392
35.064,8.136
35.068,8.124
35.072,8.36
35.076,8.4
35.08,8.184
35.084,8.16
35.088,8.304
35.092,8.424
35.096,8.216
35.1,8.068
35.104,8.252
35.108,8.404
35.112,8.256
35.116,8.088
35.12,8.2
35.124,8.388
35.128,8.276
35.132,8.064
35.136,8.164
35.14,8.404
35.144,8.332
35.148,8.06
35.152,8.132
35.156,8.368
35.16,8.356
35.164,8.124
35.168,8.068
35.172,8.272
35.176,8.36
35.18,8.132
35.184,8.064
35.188,8.276
35.192,8.392
35.196,8.164
35.2,8.036
35.204,8.26
35.208,8.408
35.212,8.252
35.216,8.064
35.22,8.208
35.224,8.4
35.228,8.304
35.232,8.044
35.236,8.14
35.24,8.368
35.244,8.312
35.248,8.048
35.252,8.128
35.256,8.356
35.26,8.364
35.264,8.136
35.268,8.128
35.272,8.34
35.276,8.456
35.28,8.224
35.284,8.132
35.288,8.368
35.292,8.516
35.296,8.32
35.3,8.192
35.304,8.376
35.308,8.556
35.312,8.416
35.316,8.228
35.32,8.336
35.324,8.528
35.328,8.364
35.332,8.132
35.336,8.276
35.34,8.496
35.344,8.472
35.348,8.12
35.352,8.152
35.356,8.4
35.36,8.384
35.364,8.08
35.368,8.084
35.372,8.224
35.376,8.328
35.38,8.072
35.384,7.98
35.388,8.188
35.392,8.344
35.396,8.112
35.4,8.024
35.404,8.216
35.408,8.348
35.412,8.148
35.416,7.952
35.42,8.164
35.424,8.352
35.428,8.264
35.432,7.988
35.436,8.1
35.44,8.332
35.444,8.176
35.448,7.852
35.452,7.96
35.456,8.344
35.46,8.588
35.464,8.816
35.468,9.388
35.472,10.148
35.476,10.384
35.48,9.552
35.484,8.74
35.488,8.804
35.492,8.912
35.496,8.596
35.5,8.332
35.504,8.424
35.508,8.548
35.512,8.328
35.516,8.108
35.52,8.248
35.524,8.404
35.528,8.248
35.532,8.048
35.536,8.14
35.54,8.352
35.544,8.364
35.548,8.116
35.552,8.076
35.556,8.28
35.56,8.324
35.564,8.08
35.568,8.04
35.572,8.288
35.576,8.412
35.58,8.144
35.584,8.088
35.588,8.32
35.592,8.408
35.596,8.132
35.6,7.992
35.604,8.18
35.608,8.368
35.612,8.236
35.616,8.056
35.62,8.188
35.624,8.376
35.628,8.268
35.632,8.04
35.636,8.16
35.64,8.38
35.644,8.364
35.648,8.104
35.652,8.112
35.656,8.304
35.66,8.348
35.664,8.18
35.668,8.124
35.672,8.352
35.676,8.448
35.68,8.236
35.684,8.236
35.688,8.408
35.692,8.448
35.696,8.196
35.7,8.032
35.704,8.268
35.708,8.512
35.712,8.428
35.716,8.264
35.72,8.38
35.724,8.556
35.728,8.428
35.732,8.164
35.736,8.304
35.74,8.52
35.744,8.56
35.748,8.372
35.752,8.408
35.756,8.712
35.76,8.792
35.764,8.472
35.768,8.424
35.772,8.712
35.776,8.856
35.78,8.548
35.784,8.368
35.788,8.592
35.792,8.74
35.796,8.568
35.8,8.488
35.804,8.568
35.808,8.58
35.812,8.36
35.816,8.112
35.82,8.204
35.824,8.384
35.828,8.34
35.832,8.088
35.836,8.22
35.84,8.48
35.844,8.408
35.848,8.232
35.852,8.224
35.856,8.308
35.86,8.264
35.864,8.02
35.868,8.028
35.872,8.236
35.876,8.34
35.88,8.208
35.884,8.08
35.888,8.292
35.892,8.436
35.896,8.076
35.9,7.872
35.904,8.136
35.908,8.376
35.912,8.28
35.916,8.048
35.92,8.148
35.924,8.304
35.928,8.352
35.932,8.128
35.936,8.16
35.94,8.308
35.944,8.26
35.948,7.968
35.952,8.044
35.956,8.28
35.96,8.316
35.964,8.068
35.968,8.088
35.972,8.28
35.976,8.38
35.98,8.136
35.984,8.072
35.988,8.296
35.992,8.424
35.996,8.276
36,8.144
36.004,8.288
36.008,8.356
36.012,8.22
36.016,8.028
36.02,8.24
36.024,8.432
36.028,8.244
36.032,8
36.036,8.148
36.04,8.296
36.044,8.224
36.048,7.972
36.052,8.076
36.056,8.32
36.06,8.348
36.064,8.1
36.068,8.064
36.072,8.252
36.076,8.372
36.08,8.164
36.084,8.072
36.088,8.34
36.092,8.488
36.096,8.2
36.1,7.964
36.104,8.144
36.108,8.36
36.112,8.232
36.116,8.088
36.12,8.204
36.124,8.308
36.128,8.164
36.132,7.976
36.136,8.108
36.14,8.328
36.144,8.272
36.148,8.048
36.152,8.16
36.156,8.428
36.16,8.356
36.164,8.052
36.168,8.052
36.172,8.264
36.176,8.336
36.18,8.1
36.184,7.988
36.188,8.176
36.192,8.288
36.196,8.132
36.2,7.968
36.204,8.176
36.208,8.42
36.212,8.296
36.216,8.028
36.22,8.18
36.224,8.456
36.228,8.424
36.232,8.208
36.236,8.288
36.24,8.38
36.244,8.32
36.248,8.184
36.252,8.228
36.256,8.416
36.26,8.456
36.264,8.256
36.268,8.232
36.272,8.388
36.276,8.432
36.28,8.288
36.284,8.164
36.288,8.352
36.292,8.412
36.296,8.18
36.3,8.068
36.304,8.2
36.308,8.308
36.312,8.172
36.316,8.124
36.32,8.284
36.324,8.312
36.328,8.052
36.332,7.852
36.336,8.088
36.34,8.332
36.344,8.276
36.348,8
36.352,8.036
36.356,8.276
36.36,8.364
36.364,8.084
36.368,8.084
36.372,8.224
36.376,8.272
36.38,8.028
36.384,7.908
36.388,8.008
36.392,8.076
36.396,7.944
36.4,8.024
36.404,8.52
36.408,9.196
36.412,9.66
36.416,9.98
36.42,10.108
36.424,9.664
36.428,9.036
36.432,8.608
36.436,8.672
36.44,8.72
36.444,8.608
36.448,8.296
36.452,8.304
36.456,8.376
36.46,8.352
36.464,8.04
36.468,8
36.472,8.244
36.476,8.42
36.48,8.336
36.484,8.096
36.488,8.184
36.492,8.352
36.496,8.116
36.5,7.88
36.504,8.16
36.508,8.34
36.512,8.224
36.516,8.024
36.52,8.156
36.524,8.3
36.528,8.292
36.532,8.124
36.536,8.156
36.54,8.236
36.544,8.232
36.548,7.988
36.552,8.088
36.556,8.348
36.56,8.328
36.564,8.08
36.568,8.012
36.572,8.256
36.576,8.396
36.58,8.176
36.584,7.956
36.588,8.188
36.592,8.484
36.596,8.3
36.6,7.984
36.604,8.104
36.608,8.268
36.612,8.188
36.616,8.044
36.62,8.248
36.624,8.42
36.628,8.308
36.632,8.048
36.636,8.128
36.64,8.324
36.644,8.32
36.648,8.136
36.652,8.144
36.656,8.428
36.66,8.496
36.664,8.228
36.668,8.208
36.672,8.484
36.676,8.564
36.68,8.236
36.684,8.196
36.688,8.476
36.692,8.556
36.696,8.552
36.7,8.444
36.704,8.532
36.708,8.584
36.712,8.484
36.716,8.272
36.72,8.48
36.724,8.692
36.728,8.74
36.732,8.508
36.736,8.432
36.74,8.616
36.744,8.564
36.748,8.28
36.752,8.28
36.756,8.396
36.76,8.396
36.764,8.184
36.768,8.156
36.772,8.316
36.776,8.344
36.78,8.156
36.784,8.14
36.788,8.38
36.792,8.46
36.796,8.204
36.8,7.976
36.804,8.204
36.808,8.28
36.812,8.096
36.816,7.956
36.82,8.188
36.824,8.348
36.828,8.28
36.832,7.988
36.836,8.112
36.84,8.36
36.844,8.256
36.848,7.932
36.852,7.964
36.856,8.228
36.86,8.28
36.864,8.048
36.868,8.108
36.872,8.256
36.876,8.344
36.88,8.184
36.884,8.12
36.888,8.284
36.892,8.292
36.896,8.04
36.9,7.98
36.904,8.248
36.908,8.388
36.912,8.284
36.916,7.944
36.92,8.04
36.924,8.252
36.928,8.2
36.932,8.072
36.936,8.28
36.94,8.336
36.944,8.224
36.948,8.048
36.952,8.096
36.956,8.32
36.96,8.46
36.964,8.156
36.968,8.016
36.972,8.108
36.976,8.164
36.98,8.024
36.984,7.968
36.988,8.224
36.992,8.372
36.996,8.228
37,8.044
37.004,8.14
37.008,8.284
37.012,8.3
37.016,8.056
37.02,8.048
37.024,8.184
37.028,8.176
37.032,7.968
37.036,8.064
37.04,8.356
37.044,8.3
37.048,7.988
37.052,8.016
37.056,8.284
37.06,8.32
37.064,8.036
37.068,7.924
37.072,8.196
37.076,8.308
37.08,8.156
37.084,8.052
37.088,8.224
37.092,8.276
37.096,8.096
37.1,7.956
37.104,8.26
37.108,8.38
37.112,8.176
37.116,7.872
37.12,8.04
37.124,8.256
37.128,8.256
37.132,8.02
37.136,8.072
37.14,8.296
37.144,8.316
37.148,8.068
37.152,8.136
37.156,8.376
37.16,8.376
37.164,8.188
37.168,8.012
37.172,8.172
37.176,8.352
37.18,8.144
37.184,8.012
37.188,8.184
37.192,8.32
37.196,8.276
37.2,8.228
37.204,8.368
37.208,8.308
37.212,8.256
37.216,8.104
37.22,8.22
37.224,8.404
37.228,8.324
37.232,8.168
37.236,8.244
37.24,8.392
37.244,8.32
37.248,8.092
37.252,8.12
37.256,8.344
37.26,8.256
37.264,7.968
37.268,7.972
37.272,8.308
37.276,8.248
37.28,7.972
37.284,7.856
37.288,8.072
37.292,8.328
37.296,8.224
37.3,7.98
37.304,8.028
37.308,8.148
37.312,8.112
37.316,7.904
37.32,8.084
37.324,8.236
37.328,8.184
37.332,8.028
37.336,8.08
37.34,8.136
37.344,8.092
37.348,7.82
37.352,7.876
37.356,8.46
37.36,8.796
37.364,8.856
37.368,9.372
37.372,10.064
37.376,9.94
37.38,9.056
37.384,8.508
37.388,8.64
37.392,8.68
37.396,8.488
37.4,8.192
37.404,8.308
37.408,8.456
37.412,8.344
37.416,8.144
37.42,8.228
37.424,8.284
37.428,8.136
37.432,7.996
37.436,8.112
37.44,8.276
37.444,8.196
37.448,7.94
37.452,7.928
37.456,8.208
37.46,8.232
37.464,8.008
37.468,7.952
37.472,8.168
37.476,8.264
37.48,8.112
37.484,8.024
37.488,8.228
37.492,8.292
37.496,8.06
37.5,7.94
37.504,8.156
37.508,8.348
37.512,8.236
37.516,7.972
37.52,8.084
37.524,8.276
37.528,8.252
37.532,8.04
37.536,8.116
37.54,8.368
37.544,8.32
37.548,8.064
37.552,8.028
37.556,8.248
37.56,8.3
37.564,8.176
37.568,8.3
37.572,8.444
37.576,8.364
37.58,8.236
37.584,8.12
37.588,8.208
37.592,8.252
37.596,8.108
37.6,8.008
37.604,8.18
37.608,8.42
37.612,8.296
37.616,8.112
37.62,8.308
37.624,8.556
37.628,8.488
37.632,8.268
37.636,8.3
37.64,8.516
37.644,8.548
37.648,8.36
37.652,8.488
37.656,8.852
37.66,8.776
37.664,8.384
37.668,8.292
37.672,8.532
37.676,8.68
37.68,8.592
37.684,8.456
37.688,8.628
37.692,8.628
37.696,8.336
37.7,8.164
37.704,8.432
37.708,8.536
37.712,8.36
37.716,8.204
37.72,8.352
37.724,8.488
37.728,8.26
37.732,7.988
37.736,8.14
37.74,8.376
37.744,8.304
37.748,8.156
37.752,8.144
37.756,8.248
37.76,8.24
37.764,8.084
37.768,8.14
37.772,8.412
37.776,8.392
37.78,8.076
37.784,7.944
37.788,8.168
37.792,8.328
37.796,8.224
37.8,7.992
37.804,8.12
37.808,8.284
37.812,8.204
37.816,8.024
37.82,8.212
37.824,8.46
37.828,8.348
37.832,8.08
37.836,8.012
37.84,8.272
37.844,8.32
37.848,8.088
37.852,8.1
37.856,8.428
37.86,8.404
37.864,8.072
37.868,7.976
37.872,8.228
37.876,8.312
37.88,8.128
37.884,8.032
37.888,8.288
37.892,8.372
37.896,8.236
37.9,8.132
37.904,8.232
37.908,8.468
37.912,8.432
37.916,8.144
37.92,8.232
37.924,8.448
37.928,8.34
37.932,8.016
37.936,8.008
37.94,8.208
37.944,8.228
37.948,8.012
37.952,8.096
37.956,8.348
37.96,8.368
37.964,8.12
37.968,8.08
37.972,8.34
37.976,8.372
37.98,8.104
37.984,8.124
37.988,8.336
37.992,8.444
37.996,8.224
38,8.052
38.004,8.188
38.008,8.392
38.012,8.296
38.016,8
38.02,8.124
38.024,8.336
38.028,8.348
38.032,8.12
38.036,8.172
38.04,8.292
38.044,8.192
38.048,8.012
38.052,8.072
38.056,8.368
38.06,8.388
38.064,8.116
38.068,8.104
38.072,8.4
38.076,8.372
38.08,8.076
38.084,7.936
38.088,8.196
38.092,8.356
38.096,8.2
38.1,7.964
38.104,8.172
38.108,8.388
38.112,8.312
38.116,8.108
38.12,8.268
38.124,8.564
38.128,8.396
38.132,8.032
38.136,8.128
38.14,8.44
38.144,8.388
38.148,8.132
38.152,8.26
38.156,8.456
38.16,8.46
38.164,8.264
38.168,8.188
38.172,8.44
38.176,8.616
38.18,8.396
38.184,8.26
38.188,8.372
38.192,8.236
38.196,8.096
38.2,8.048
38.204,8.22
38.208,8.396
38.212,8.208
38.216,7.944
38.22,8.14
38.224,8.36
38.228,8.216
38.232,8.068
38.236,8.176
38.24,8.368
38.244,8.328
38.248,8.004
38.252,8.032
38.256,8.292
38.26,8.22
38.264,7.92
38.268,7.956
38.272,8.216
38.276,8.428
38.28,8.292
38.284,8.088
38.288,8.144
38.292,8.196
38.296,7.992
38.3,7.908
38.304,8.532
38.308,9.296
38.312,9.676
38.316,10.016
38.32,10.136
38.324,9.536
38.328,8.94
38.332,8.664
38.336,8.668
38.34,8.732
38.344,8.64
38.348,8.36
38.352,8.272
38.356,8.468
38.36,8.452
38.364,8.1
38.368,7.968
38.372,8.172
38.376,8.272
38.38,8.156
38.384,7.992
38.388,8.32
38.392,8.472
38.396,8.24
38.4,8.132
38.404,8.192
38.408,8.212
38.412,8.092
38.416,8.016
38.42,8.144
38.424,8.356
38.428,8.276
38.432,7.96
38.436,7.988
38.44,8.264
38.444,8.284
38.448,8.144
38.452,8.276
38.456,8.432
38.46,8.292
38.464,7.948
38.468,7.908
38.472,8.156
38.476,8.344
38.48,8.176
38.484,8.116
38.488,8.404
38.492,8.38
38.496,8.084
38.5,7.912
38.504,8.108
38.508,8.396
38.512,8.428
38.516,8.584
38.52,8.484
38.524,8.112
38.528,7.888
38.532,7.868
38.536,8.132
38.54,8.484
38.544,8.42
38.548,8.124
38.552,8.216
38.556,8.412
38.56,8.356
38.564,8.144
38.568,8.22
38.572,8.516
38.576,8.7
38.58,8.444
38.584,8.328
38.588,8.556
38.592,9.008
38.596,8.748
38.6,8.264
38.604,8.212
38.608,8.532
38.612,8.444
38.616,8.344
38.62,8.492
38.624,8.644
38.628,8.496
38.632,8.38
38.636,8.52
38.64,8.664
38.644,8.444
38.648,8.196
38.652,8.16
38.656,8.368
38.66,8.404
38.664,8.16
38.668,8.148
38.672,8.584
38.676,8.716
38.68,8.264
38.684,7.98
38.688,7.9
38.692,8.028
38.696,8.012
38.7,8.084
38.704,8.224
38.708,8.144
38.712,8.064
38.716,7.908
38.72,8.156
38.724,8.58
38.728,8.428
38.732,8.044
38.736,8.104
38.74,8.172
38.744,7.98
38.748,7.988
38.752,8.02
38.756,8.256
38.76,8.3
38.764,8.088
38.768,8.068
38.772,8.328
38.776,8.296
38.78,7.832
38.784,7.724
38.788,8.04
38.792,8.24
38.796,8.164
38.8,8.032
38.804,8.112
38.808,8.28
38.812,8.04
38.816,7.96
38.82,8.248
38.824,8.248
38.828,8.028
38.832,7.876
38.836,8.016
38.84,8.548
38.844,8.5
38.848,7.98
38.852,7.812
38.856,8.24
38.86,8.12
38.864,7.852
38.868,7.964
38.872,8.192
38.876,8.248
38.88,8.032
38.884,8.04
38.888,8.184
38.892,8.16
38.896,8.008
38.9,7.828
38.904,8.192
38.908,8.516
38.912,8.184
38.916,7.82
38.92,7.86
38.924,8.132
38.928,8.128
38.932,7.924
38.936,8.044
38.94,8.352
38.944,8.192
38.948,7.792
38.952,7.92
38.956,8.188
38.96,8.088
38.964,7.84
38.968,7.956
38.972,8.356
38.976,8.32
38.98,8.092
38.984,7.892
38.988,7.964
38.992,8.02
38.996,8.012
39,7.92
39.004,8.148
39.008,8.448
39.012,8.096
39.016,7.692
39.02,8.024
39.024,8.692
39.028,8.38
39.032,7.688
39.036,7.604
39.04,7.988
39.044,8.012
39.048,7.912
39.052,8.124
39.056,8.2
39.06,8.192
39.064,8.032
39.068,7.936
39.072,8.232
39.076,8.404
39.08,8.164
39.084,7.992
39.088,8.224
39.092,8.448
39.096,8.472
39.1,8.184
39.104,7.936
39.108,8.116
39.112,7.908
39.116,7.856
39.12,8.184
39.124,8.364
39.128,8.096
39.132,7.912
39.136,8.12
