0,8.18
0.004,8.256
0.008,8.068
0.012,7.916
0.016,8.132
0.02,8.28
0.024,8.108
0.028,7.916
0.032,8.112
0.036,8.264
0.04,8.14
0.044,7.944
0.048,8.08
0.052,8.288
0.056,8.192
0.06,7.984
0.064,8.028
0.068,8.248
0.072,8.248
0.076,8.012
0.08,8.02
0.084,8.232
0.088,8.292
0.092,8.032
0.096,7.976
0.1,8.2
0.104,8.296
0.108,8.092
0.112,7.944
0.116,8.14
0.12,8.324
0.124,8.12
0.128,7.936
0.132,8.104
0.136,8.252
0.14,8.12
0.144,7.952
0.148,8.08
0.152,8.272
0.156,8.176
0.16,7.948
0.164,8.016
0.168,8.212
0.172,8.224
0.176,7.98
0.18,7.964
0.184,8.192
0.188,8.228
0.192,8.008
0.196,7.936
0.2,8.16
0.204,8.28
0.208,8.064
0.212,7.912
0.216,8.108
0.22,8.24
0.224,8.1
0.228,7.94
0.232,8.104
0.236,8.304
0.24,8.188
0.244,8
0.248,8.096
0.252,8.336
0.256,8.232
0.26,8.044
0.264,8.108
0.268,8.312
0.272,8.252
0.276,8.044
0.28,7.992
0.284,8.216
0.288,8.304
0.292,8.04
0.296,7.932
0.3,8.16
0.304,8.284
0.308,8.084
0.312,7.896
0.316,8.092
0.32,8.22
0.324,8.06
0.328,7.884
0.332,8.028
0.336,8.22
0.34,8.08
0.344,7.92
0.348,8.028
0.352,8.236
0.356,8.156
0.36,7.92
0.364,7.94
0.368,8.092
0.372,8.084
0.376,7.932
0.38,8.036
0.384,8.364
0.388,8.812
0.392,8.94
0.396,8.928
0.4,8.676
0.404,8.532
0.408,8.056
0.412,7.656
0.416,7.696
0.42,7.796
0.424,7.66
0.428,7.624
0.432,7.876
0.436,8.128
0.44,8.052
0.444,7.864
0.448,7.996
0.452,8.2
0.456,8.14
0.46,7.92
0.464,7.952
0.468,8.184
0.472,8.196
0.476,7.968
0.48,7.964
0.484,8.2
0.488,8.236
0.492,8.008
0.496,7.904
0.5,8.132
0.504,8.268
0.508,8.048
0.512,7.892
0.516,8.132
0.52,8.296
0.524,8.088
0.528,7.924
0.532,8.1
0.536,8.28
0.54,8.156
0.544,7.928
0.548,8.084
0.552,8.312
0.556,8.256
0.56,8.044
0.564,8.092
0.568,8.312
0.572,8.316
0.576,8.108
0.58,8.092
0.584,8.36
0.588,8.448
0.592,8.248
0.596,8.14
0.6,8.428
0.604,8.592
0.608,8.392
0.612,8.296
0.616,8.528
0.62,8.676
0.624,8.544
0.628,8.396
0.632,8.576
0.636,8.744
0.64,8.644
0.644,8.444
0.648,8.556
0.652,8.7
0.656,8.632
0.66,8.4
0.664,8.34
0.668,8.516
0.672,8.472
0.676,8.204
0.68,8.116
0.684,8.28
0.688,8.36
0.692,8.1
0.696,7.94
0.7,8.168
0.704,8.284
0.708,8.072
0.712,7.876
0.716,8.068
0.72,8.22
0.724,8.044
0.728,7.876
0.732,8.052
0.736,8.216
0.74,8.092
0.744,7.896
0.748,7.988
0.752,8.176
0.756,8.112
0.76,7.9
0.764,7.928
0.768,8.136
0.772,8.148
0.776,7.956
0.78,7.9
0.784,8.128
0.788,8.192
0.792,7.984
0.796,7.868
0.8,8.084
0.804,8.228
0.808,8.032
0.812,7.86
0.816,8.088
0.82,8.252
0.824,8.084
0.828,7.908
0.832,8.036
0.836,8.228
0.84,8.12
0.844,7.888
0.848,7.984
0.852,8.196
0.856,8.148
0.86,7.912
0.864,7.94
0.868,8.16
0.872,8.184
0.876,7.94
0.88,7.88
0.884,8.128
0.888,8.228
0.892,8.004
0.896,7.888
0.9,8.06
0.904,8.196
0.908,7.988
0.912,7.86
0.916,8.04
0.92,8.212
0.924,8.052
0.928,7.872
0.932,8.024
0.936,8.18
0.94,8.064
0.944,7.876
0.948,7.956
0.952,8.156
0.956,8.132
0.96,7.896
0.964,7.884
0.968,8.152
0.972,8.168
0.976,7.936
0.98,7.932
0.984,8.18
0.988,8.28
0.992,8.044
0.996,7.924
1,8.156
1.004,8.276
1.008,8.092
1.012,7.9
1.016,8.06
1.02,8.228
1.024,8.068
1.028,7.868
1.032,8.036
1.036,8.192
1.04,8.048
1.044,7.876
1.048,7.956
1.052,8.116
1.056,8.092
1.06,7.872
1.064,7.868
1.068,8.072
1.072,8.104
1.076,7.88
1.08,7.8
1.084,8.048
1.088,8.132
1.092,7.94
1.096,7.808
1.1,8.02
1.104,8.164
1.108,7.916
1.112,7.732
1.116,7.968
1.12,8.26
1.124,8.204
1.128,8.256
1.132,8.828
1.136,9.312
1.14,8.944
1.144,8.376
1.148,8.152
1.152,8.012
1.156,7.776
1.16,7.476
1.164,7.468
1.168,7.772
1.172,7.928
1.176,7.796
1.18,7.808
1.184,8.036
1.188,8.148
1.192,7.944
1.196,7.812
1.2,8.024
1.204,8.152
1.208,7.992
1.212,7.816
1.216,8
1.22,8.196
1.224,8.036
1.228,7.88
1.232,8.008
1.236,8.188
1.24,8.076
1.244,7.884
1.248,7.952
1.252,8.172
1.256,8.156
1.26,7.912
1.264,7.928
1.268,8.152
1.272,8.184
1.276,7.972
1.28,7.892
1.284,8.148
1.288,8.224
1.292,8.024
1.296,7.928
1.3,8.148
1.304,8.288
1.308,8.108
1.312,7.936
1.316,8.164
1.32,8.336
1.324,8.212
1.328,8.04
1.332,8.22
1.336,8.444
1.34,8.364
1.344,8.192
1.348,8.272
1.352,8.524
1.356,8.548
1.36,8.336
1.364,8.372
1.368,8.624
1.372,8.7
1.376,8.468
1.38,8.42
1.384,8.656
1.388,8.716
1.392,8.5
1.396,8.352
1.4,8.52
1.404,8.62
1.408,8.36
1.412,8.144
1.416,8.3
1.42,8.412
1.424,8.224
1.428,8
1.432,8.104
1.436,8.264
1.44,8.156
1.444,7.932
1.448,7.968
1.452,8.196
1.456,8.14
1.46,7.928
1.464,7.924
1.468,8.136
1.472,8.172
1.476,7.94
1.48,7.836
1.484,8.092
1.488,8.188
1.492,7.988
1.496,7.828
1.5,8.048
1.504,8.216
1.508,8.024
1.512,7.844
1.516,8.024
1.52,8.184
1.524,8.048
1.528,7.84
1.532,7.988
1.536,8.168
1.54,8.08
1.544,7.872
1.548,7.94
1.552,8.144
1.556,8.108
1.56,7.924
1.564,7.908
1.568,8.128
1.572,8.184
1.576,7.968
1.58,7.86
1.584,8.108
1.588,8.228
1.592,8.008
1.596,7.86
1.6,8.096
1.604,8.224
1.608,8.048
1.612,7.852
1.616,8.052
1.62,8.204
1.624,8.072
1.628,7.884
1.632,8.008
1.636,8.204
1.64,8.104
1.644,7.896
1.648,7.96
1.652,8.14
1.656,8.132
1.66,7.916
1.664,7.896
1.668,8.132
1.672,8.176
1.676,7.952
1.68,7.852
1.684,8.08
1.688,8.196
1.692,7.98
1.696,7.852
1.7,8.076
1.704,8.228
1.708,8.008
1.712,7.828
1.716,8.032
1.72,8.188
1.724,8.06
1.728,7.896
1.732,8.036
1.736,8.236
1.74,8.18
1.744,7.948
1.748,8.012
1.752,8.208
1.756,8.208
1.76,8
1.764,7.98
1.768,8.18
1.772,8.204
1.776,7.988
1.78,7.86
1.784,8.12
1.788,8.228
1.792,7.984
1.796,7.808
1.8,8.048
1.804,8.204
1.808,8.016
1.812,7.788
1.816,7.948
1.82,8.12
1.824,7.984
1.828,7.8
1.832,7.912
1.836,8.132
1.84,8.056
1.844,7.832
1.848,7.864
1.852,8.088
1.856,8.096
1.86,7.86
1.864,7.8
1.868,8
1.872,8.104
1.876,8.04
1.88,8.052
1.884,8.548
1.888,9.068
1.892,9.02
1.896,8.464
1.9,8.404
1.904,8.2
1.908,7.756
1.912,7.42
1.916,7.508
1.92,7.772
1.924,7.76
1.928,7.668
1.932,7.856
1.936,8.084
1.94,8.032
1.944,7.824
1.948,7.852
1.952,8.064
1.956,8.088
1.96,7.848
1.964,7.86
1.968,8.112
1.972,8.148
1.976,7.932
1.98,7.812
1.984,8.036
1.988,8.172
1.992,7.944
1.996,7.804
2,8.028
2.004,8.18
2.008,8
2.012,7.82
2.016,8
2.02,8.168
2.024,8.04
2.028,7.844
2.032,7.968
2.036,8.184
2.04,8.112
2.044,7.904
2.048,7.948
2.052,8.152
2.056,8.164
2.06,7.944
2.064,7.952
2.068,8.188
2.072,8.308
2.076,8.072
2.08,7.972
2.084,8.236
2.088,8.376
2.092,8.208
2.096,8.084
2.1,8.328
2.104,8.512
2.108,8.388
2.112,8.236
2.116,8.42
2.12,8.608
2.124,8.528
2.128,8.348
2.132,8.504
2.136,8.692
2.14,8.628
2.144,8.408
2.148,8.408
2.152,8.584
2.156,8.572
2.16,8.272
2.164,8.2
2.168,8.368
2.172,8.408
2.176,8.14
2.18,8
2.184,8.188
2.188,8.276
2.192,8.052
2.196,7.876
2.2,8.076
2.204,8.208
2.208,8.036
2.212,7.848
2.216,8.012
2.22,8.152
2.224,8.028
2.228,7.816
2.232,7.964
2.236,8.152
2.24,8.092
2.244,7.88
2.248,7.9
2.252,8.12
2.256,8.12
2.26,7.892
2.264,7.836
2.268,8.088
2.272,8.168
2.276,7.924
2.28,7.804
2.284,8.052
2.288,8.168
2.292,7.964
2.296,7.82
2.3,8.008
2.304,8.168
2.308,8.012
2.312,7.836
2.316,7.948
2.32,8.14
2.324,8.068
2.328,7.852
2.332,7.964
2.336,8.164
2.34,8.108
2.344,7.896
2.348,7.892
2.352,8.128
2.356,8.144
2.36,7.872
2.364,7.86
2.368,8.08
2.372,8.168
2.376,7.936
2.38,7.844
2.384,8.04
2.388,8.184
2.392,7.968
2.396,7.812
2.4,8.004
2.404,8.18
2.408,7.996
2.412,7.816
2.416,7.964
2.42,8.152
2.424,8.036
2.428,7.816
2.432,7.908
2.436,8.124
2.44,8.064
2.444,7.852
2.448,7.884
2.452,8.104
2.456,8.096
2.46,7.872
2.464,7.832
2.468,8.056
2.472,8.144
2.476,7.94
2.48,7.832
2.484,8.056
2.488,8.212
2.492,8.016
2.496,7.848
2.5,8.06
2.504,8.22
2.508,8.064
2.512,7.908
2.516,8.044
2.52,8.2
2.524,8.052
2.528,7.86
2.532,7.916
2.536,8.128
2.54,8.06
2.544,7.832
2.548,7.876
2.552,8.052
2.556,8.1
2.56,7.828
2.564,7.772
2.568,8.008
2.572,8.096
2.576,7.872
2.58,7.744
2.584,7.972
2.588,8.084
2.592,7.92
2.596,7.728
2.6,7.948
2.604,8.08
2.608,7.956
2.612,7.78
2.616,7.896
2.62,8.032
2.624,7.928
2.628,7.82
2.632,8.048
2.636,8.364
2.64,8.704
2.644,8.832
2.648,8.704
2.652,8.496
2.656,8.252
2.66,7.656
2.664,7.444
2.668,7.572
2.672,7.64
2.676,7.572
2.68,7.58
2.684,7.884
2.688,8.076
2.692,7.872
2.696,7.728
2.7,7.896
2.704,8.088
2.708,7.94
2.712,7.772
2.716,7.924
2.72,8.092
2.724,7.98
2.728,7.804
2.732,7.872
2.736,8.068
2.74,8.052
2.744,7.812
2.748,7.828
2.752,8.052
2.756,8.1
2.76,7.872
2.764,7.792
2.768,8.02
2.772,8.136
2.776,7.896
2.78,7.8
2.784,8.004
2.788,8.168
2.792,7.964
2.796,7.82
2.8,8.012
2.804,8.184
2.808,8.028
2.812,7.864
2.816,8.008
2.82,8.2
2.824,8.104
2.828,7.928
2.832,8.036
2.836,8.248
2.84,8.228
2.844,8.04
2.848,8.104
2.852,8.336
2.856,8.388
2.86,8.212
2.864,8.168
2.868,8.404
2.872,8.56
2.876,8.368
2.88,8.28
2.884,8.504
2.888,8.636
2.892,8.44
2.896,8.28
2.9,8.492
2.904,8.616
2.908,8.42
2.912,8.184
2.916,8.288
2.92,8.42
2.924,8.228
2.928,8
2.932,8.064
2.936,8.236
2.94,8.176
2.944,7.904
2.948,7.912
2.952,8.096
2.956,8.104
2.96,7.888
2.964,7.8
2.968,8.012
2.972,8.112
2.976,7.88
2.98,7.756
2.984,7.992
2.988,8.12
2.992,7.94
2.996,7.748
3,7.928
3.004,8.1
3.008,7.956
3.012,7.76
3.016,7.896
3.02,8.112
3.024,7.992
3.028,7.792
3.032,7.832
3.036,8.068
3.04,8.028
3.044,7.812
3.048,7.816
3.052,8.06
3.056,8.092
3.06,7.876
3.064,7.776
3.068,7.996
3.072,8.096
3.076,7.928
3.08,7.772
3.084,7.984
3.088,8.132
3.092,7.972
3.096,7.776
3.1,7.956
3.104,8.144
3.108,7.98
3.112,7.8
3.116,7.956
3.12,8.088
3.124,8.016
3.128,7.816
3.132,7.856
3.136,8.084
3.14,8.056
3.144,7.844
3.148,7.82
3.152,8.072
3.156,8.096
3.16,7.86
3.164,7.788
3.168,8.016
3.172,8.124
3.176,7.896
3.18,7.772
3.184,7.98
3.188,8.116
3.192,7.936
3.196,7.752
3.2,7.948
3.204,8.108
3.208,7.964
3.212,7.76
3.216,7.904
3.22,8.092
3.224,7.996
3.228,7.792
3.232,7.836
3.236,8.064
3.24,8.04
3.244,7.832
3.248,7.844
3.252,8.06
3.256,8.164
3.26,7.948
3.264,7.852
3.268,8.056
3.272,8.18
3.276,8
3.28,7.872
3.284,8.064
3.288,8.168
3.292,7.952
3.296,7.8
3.3,7.932
3.304,8.132
3.308,7.972
3.312,7.736
3.316,7.876
3.32,8.1
3.324,8
3.328,7.752
3.332,7.808
3.336,8.016
3.34,7.984
3.344,7.772
3.348,7.776
3.352,8
3.356,8.036
3.36,7.82
3.364,7.728
3.368,7.964
3.372,8.052
3.376,7.836
3.38,7.712
3.384,7.9
3.388,8.028
3.392,7.852
3.396,7.844
3.4,8.124
3.404,8.58
3.408,8.82
3.412,8.728
3.416,8.392
3.42,8.328
3.424,7.892
3.428,7.456
3.432,7.392
3.436,7.576
3.44,7.628
3.444,7.544
3.448,7.6
3.452,7.908
3.456,7.992
3.46,7.788
3.464,7.708
3.468,7.932
3.472,8.056
3.476,7.848
3.48,7.724
3.484,7.928
3.488,8.076
3.492,7.872
3.496,7.732
3.5,7.904
3.504,8.068
3.508,7.928
3.512,7.72
3.516,7.892
3.52,8.064
3.524,7.996
3.528,7.784
3.532,7.84
3.536,8.044
3.54,8.016
3.544,7.804
3.548,7.816
3.552,8.06
3.556,8.088
3.56,7.876
3.564,7.784
3.568,8.008
3.572,8.164
3.576,7.936
3.58,7.796
3.584,8.024
3.588,8.184
3.592,8.032
3.596,7.888
3.6,8.08
3.604,8.256
3.608,8.144
3.612,7.984
3.616,8.152
3.62,8.36
3.624,8.332
3.628,8.132
3.632,8.248
3.636,8.5
3.64,8.516
3.644,8.276
3.648,8.292
3.652,8.532
3.656,8.596
3.66,8.384
3.664,8.292
3.668,8.5
3.672,8.552
3.676,8.284
3.68,8.088
3.684,8.268
3.688,8.388
3.692,8.148
3.696,7.932
3.7,8.072
3.704,8.188
3.708,8.024
3.712,7.8
3.716,7.924
3.72,8.124
3.724,8.032
3.728,7.816
3.732,7.84
3.736,8.02
3.74,8.016
3.744,7.768
3.748,7.764
3.752,7.984
3.756,8.072
3.76,7.836
3.764,7.744
3.768,7.98
3.772,8.092
3.776,7.856
3.78,7.712
3.784,7.932
3.788,8.076
3.792,7.892
3.796,7.724
3.8,7.908
3.804,8.064
3.808,7.932
3.812,7.744
3.816,7.872
3.82,8.08
3.824,7.98
3.828,7.792
3.832,7.816
3.836,8.016
3.84,8.02
3.844,7.8
3.848,7.804
3.852,8.02
3.856,8.108
3.86,7.876
3.864,7.772
3.868,7.964
3.872,8.088
3.876,7.888
3.88,7.724
3.884,7.944
3.888,8.084
3.892,7.952
3.896,7.74
3.9,7.92
3.904,8.068
3.908,7.952
3.912,7.748
3.916,7.888
3.92,8.04
3.924,7.968
3.928,7.784
3.932,7.784
3.936,8.016
3.94,8.008
3.944,7.788
3.948,7.752
3.952,7.992
3.956,8.032
3.96,7.828
3.964,7.72
3.968,7.932
3.972,8.072
3.976,7.88
3.98,7.716
3.984,7.912
3.988,8.06
3.992,7.892
3.996,7.724
4,7.892
4.004,8.04
4.008,7.896
4.012,7.76
4.016,7.876
4.02,8.076
4.024,8.06
4.028,7.832
4.032,7.896
4.036,8.072
4.04,8.092
4.044,7.888
4.048,7.836
4.052,8.04
4.056,8.104
4.06,7.856
4.064,7.76
4.068,7.988
4.072,8.116
4.076,7.892
4.08,7.708
4.084,7.908
4.088,8.056
4.092,7.888
4.096,7.692
4.1,7.86
4.104,8
4.108,7.884
4.112,7.7
4.116,7.8
4.12,7.996
4.124,7.912
4.128,7.712
4.132,7.76
4.136,7.968
4.14,7.964
4.144,7.748
4.148,7.7
4.152,7.884
4.156,7.932
4.16,7.804
4.164,7.848
4.168,8.204
4.172,8.708
4.176,8.884
4.18,8.688
4.184,8.428
4.188,8.332
4.192,7.9
4.196,7.448
4.2,7.484
4.204,7.576
4.208,7.532
4.212,7.464
4.216,7.68
4.22,7.94
4.224,7.908
4.228,7.708
4.232,7.752
4.236,7.972
4.24,7.976
4.244,7.764
4.248,7.732
4.252,7.932
4.256,8.036
4.26,7.832
4.264,7.736
4.268,7.928
4.272,8.088
4.276,7.868
4.28,7.728
4.284,7.912
4.288,8.084
4.292,7.908
4.296,7.732
4.3,7.884
4.304,8.068
4.308,7.952
4.312,7.76
4.316,7.86
4.32,8.044
4.324,8.024
4.328,7.828
4.332,7.872
4.336,8.108
4.34,8.128
4.344,7.88
4.348,7.852
4.352,8.072
4.356,8.172
4.36,8.012
4.364,7.904
4.368,8.108
4.372,8.288
4.376,8.072
4.38,7.984
4.384,8.24
4.388,8.412
4.392,8.26
4.396,8.124
4.4,8.316
4.404,8.504
4.408,8.44
4.412,8.24
4.416,8.384
4.42,8.592
4.424,8.556
4.428,8.304
4.432,8.356
4.436,8.52
4.44,8.492
4.444,8.224
4.448,8.12
4.452,8.316
4.456,8.336
4.46,8.088
4.464,7.944
4.468,8.108
4.472,8.192
4.476,7.972
4.48,7.816
4.484,7.976
4.488,8.136
4.492,7.956
4.496,7.764
4.5,7.896
4.504,8.056
4.508,7.964
4.512,7.76
4.516,7.868
4.52,8.04
4.524,7.948
4.528,7.764
4.532,7.808
4.536,8.012
4.54,8.04
4.544,7.804
4.548,7.776
4.552,7.972
4.556,8.08
4.56,7.848
4.564,7.736
4.568,7.948
4.572,8.092
4.576,7.864
4.58,7.724
4.584,7.916
4.588,8.092
4.592,7.916
4.596,7.788
4.6,7.928
4.604,8.092
4.608,7.964
4.612,7.784
4.616,7.864
4.62,8.064
4.624,8.008
4.628,7.792
4.632,7.816
4.636,8.04
4.64,8.068
4.644,7.86
4.648,7.78
4.652,7.976
4.656,8.08
4.66,7.88
4.664,7.76
4.668,7.988
4.672,8.104
4.676,7.9
4.68,7.74
4.684,7.96
4.688,8.096
4.692,7.912
4.696,7.752
4.7,7.92
4.704,8.084
4.708,7.976
4.712,7.764
4.716,7.844
4.72,8.016
4.724,8.016
4.728,7.784
4.732,7.804
4.736,8.024
4.74,8.064
4.744,7.82
4.748,7.736
4.752,7.988
4.756,8.08
4.76,7.852
4.764,7.732
4.768,7.952
4.772,8.088
4.776,7.888
4.78,7.716
4.784,7.928
4.788,8.072
4.792,7.928
4.796,7.76
4.8,7.944
4.804,8.124
4.808,8.048
4.812,7.872
4.816,7.924
4.82,8.108
4.824,8.092
4.828,7.876
4.832,7.84
4.836,8.056
4.84,8.088
4.844,7.88
4.848,7.792
4.852,8.036
4.856,8.068
4.86,7.848
4.864,7.744
4.868,7.988
4.872,8.064
4.876,7.864
4.88,7.684
4.884,7.88
4.888,8.044
4.892,7.884
4.896,7.7
4.9,7.836
4.904,8.008
4.908,7.92
4.912,7.712
4.916,7.82
4.92,8.008
4.924,7.944
4.928,7.696
4.932,7.684
4.936,7.992
4.94,8.188
4.944,8.088
4.948,8.288
4.952,8.968
4.956,9.228
4.96,8.596
4.964,8.16
4.968,8.024
4.972,7.884
4.976,7.532
4.98,7.3
4.984,7.512
4.988,7.792
4.992,7.728
4.996,7.64
5,7.84
5.004,8.02
5.008,7.932
5.012,7.776
5.016,7.828
5.02,8.008
5.024,7.984
5.028,7.8
5.032,7.784
5.036,8.012
5.04,8.044
5.044,7.824
5.048,7.748
5.052,7.98
5.056,8.08
5.06,7.88
5.064,7.756
5.068,7.952
5.072,8.1
5.076,7.908
5.08,7.768
5.084,7.932
5.088,8.108
5.092,7.964
5.096,7.784
5.1,7.924
5.104,8.116
5.108,8.044
5.112,7.852
5.116,7.912
5.12,8.12
5.124,8.112
5.128,7.896
5.132,7.908
5.136,8.14
5.14,8.216
5.144,8.004
5.148,7.928
5.152,8.204
5.156,8.32
5.16,8.152
5.164,8.068
5.168,8.304
5.172,8.484
5.176,8.34
5.18,8.212
5.184,8.408
5.188,8.6
5.192,8.46
5.196,8.28
5.2,8.452
5.204,8.676
5.208,8.528
5.212,8.332
5.216,8.356
5.22,8.496
5.224,8.448
5.228,8.14
5.232,8.12
5.236,8.28
5.24,8.28
5.244,8.056
5.248,7.916
5.252,8.088
5.256,8.184
5.26,7.968
5.264,7.82
5.268,8.008
5.272,8.132
5.276,7.96
5.28,7.8
5.284,7.936
5.288,8.12
5.292,7.964
5.296,7.804
5.3,7.916
5.304,8.08
5.308,7.968
5.312,7.8
5.316,7.872
5.32,8.072
5.324,8.044
5.328,7.832
5.332,7.84
5.336,8.04
5.34,8.076
5.344,7.868
5.348,7.796
5.352,8.02
5.356,8.084
5.36,7.884
5.364,7.78
5.368,7.984
5.372,8.128
5.376,7.952
5.38,7.788
5.384,7.952
5.388,8.132
5.392,8
5.396,7.824
5.4,7.948
5.404,8.148
5.408,8.044
5.412,7.852
5.416,7.912
5.42,8.108
5.424,8.092
5.428,7.876
5.432,7.84
5.436,8.076
5.44,8.136
5.444,7.9
5.448,7.82
5.452,8.036
5.456,8.128
5.46,7.94
5.464,7.788
5.468,8.008
5.472,8.144
5.476,7.98
5.48,7.844
5.484,8
5.488,8.136
5.492,8.008
5.496,7.812
5.5,7.936
5.504,8.124
5.508,8.052
5.512,7.868
5.516,7.9
5.52,8.1
5.524,8.108
5.528,7.856
5.532,7.864
5.536,8.064
5.54,8.116
5.544,7.928
5.548,7.848
5.552,8.056
5.556,8.144
5.56,7.964
5.564,7.796
5.568,8.028
5.572,8.152
5.576,7.952
5.58,7.836
5.584,7.988
5.588,8.156
5.592,8.028
5.596,7.876
5.6,8.008
5.604,8.212
5.608,8.136
5.612,7.948
5.616,7.992
5.62,8.22
5.624,8.216
5.628,7.968
5.632,7.908
5.636,8.116
5.64,8.208
5.644,7.96
5.648,7.872
5.652,8.104
5.656,8.168
5.66,7.98
5.664,7.852
5.668,8.024
5.672,8.144
5.676,7.976
5.68,7.796
5.684,7.932
5.688,8.112
5.692,7.976
5.696,7.796
5.7,7.916
5.704,8.108
5.708,8.028
5.712,7.86
5.716,7.876
5.72,8.084
5.724,8.028
5.728,7.792
5.732,7.82
5.736,8.144
5.74,8.332
5.744,8.364
5.748,8.664
5.752,9.156
5.756,8.956
5.76,8.42
5.764,7.996
5.768,7.852
5.772,7.788
5.776,7.58
5.78,7.444
5.784,7.728
5.788,8.008
5.792,7.924
5.796,7.792
5.8,7.924
5.804,8.096
5.808,8.012
5.812,7.852
5.816,7.92
5.82,8.132
5.824,8.128
5.828,7.916
5.832,7.888
5.836,8.092
5.84,8.14
5.844,7.948
5.848,7.856
5.852,8.104
5.856,8.212
5.86,7.968
5.864,7.86
5.868,8.048
5.872,8.16
5.876,8.036
5.88,7.848
5.884,8.028
5.888,8.2
5.892,8.108
5.896,7.888
5.9,7.98
5.904,8.18
5.908,8.144
5.912,7.932
5.916,8.008
5.92,8.22
5.924,8.24
5.928,8.048
5.932,8.004
5.936,8.252
5.94,8.324
5.944,8.14
5.948,8.068
5.952,8.316
5.956,8.448
5.96,8.292
5.964,8.192
5.968,8.396
5.972,8.576
5.976,8.46
5.98,8.32
5.984,8.516
5.988,8.692
5.992,8.612
5.996,8.42
6,8.528
6.004,8.724
6.008,8.648
6.012,8.432
6.016,8.424
6.02,8.58
6.024,8.528
6.028,8.276
6.032,8.196
6.036,8.352
6.04,8.396
6.044,8.124
6.048,8.012
6.052,8.22
6.056,8.288
6.06,8.076
6.064,7.908
6.068,8.092
6.072,8.236
6.076,8.084
6.08,7.92
6.084,8.072
6.088,8.24
6.092,8.104
6.096,7.912
6.1,8.024
6.104,8.212
6.108,8.128
6.112,7.944
6.116,7.968
6.12,8.172
6.124,8.208
6.128,7.992
6.132,7.92
6.136,8.16
6.14,8.236
6.144,8.028
6.148,7.904
6.152,8.128
6.156,8.264
6.16,8.052
6.164,7.912
6.168,8.112
6.172,8.248
6.176,8.112
6.18,7.94
6.184,8.092
6.188,8.252
6.192,8.124
6.196,7.956
6.2,8.032
6.204,8.248
6.208,8.192
6.212,8.008
6.216,8.024
6.22,8.232
6.224,8.236
6.228,8
6.232,7.964
6.236,8.172
6.24,8.252
6.244,8.024
6.248,7.924
6.252,8.16
6.256,8.276
6.26,8.056
6.264,7.924
6.268,8.124
6.272,8.248
6.276,8.092
6.28,7.92
6.284,8.096
6.288,8.272
6.292,8.148
6.296,7.96
6.3,8.048
6.304,8.24
6.308,8.172
6.312,7.968
6.316,7.976
6.32,8.2
6.324,8.232
6.328,8.036
6.332,7.972
6.336,8.164
6.34,8.268
6.344,8.04
6.348,7.92
6.352,8.168
6.356,8.284
6.36,8.112
6.364,7.976
6.368,8.16
6.372,8.352
6.376,8.18
6.38,8
6.384,8.164
6.388,8.36
6.392,8.256
6.396,8.048
6.4,8.116
6.404,8.316
6.408,8.22
6.412,8.028
6.416,8.016
6.42,8.252
6.424,8.28
6.428,8.02
6.432,7.98
6.436,8.204
6.44,8.248
6.444,8.024
6.448,7.88
6.452,8.088
6.456,8.26
6.46,8.072
6.464,7.896
6.468,8.052
6.472,8.228
6.476,8.06
6.48,7.916
6.484,8.06
6.488,8.256
6.492,8.136
6.496,7.908
6.5,7.948
6.504,8.16
6.508,8.2
6.512,8.12
6.516,8.312
6.52,8.928
6.524,9.276
6.528,8.828
6.532,8.416
6.536,8.352
6.54,8.072
6.544,7.68
6.548,7.48
6.552,7.704
6.556,7.952
6.56,7.9
6.564,7.784
6.568,8.044
6.572,8.236
6.576,8.096
6.58,7.884
6.584,8.052
6.588,8.264
6.592,8.144
6.596,7.936
6.6,8.024
6.604,8.224
6.608,8.208
6.612,7.972
6.616,8
6.62,8.216
6.624,8.272
6.628,8.068
6.632,7.972
6.636,8.188
6.64,8.3
6.644,8.096
6.648,7.952
6.652,8.164
6.656,8.312
6.66,8.136
6.664,7.96
6.668,8.144
6.672,8.296
6.676,8.18
6.68,8.012
6.684,8.128
6.688,8.336
6.692,8.248
6.696,8.072
6.7,8.168
6.704,8.372
6.708,8.316
6.712,8.144
6.716,8.164
6.72,8.432
6.724,8.492
6.728,8.296
6.732,8.268
6.736,8.496
6.74,8.64
6.744,8.448
6.748,8.34
6.752,8.6
6.756,8.756
6.76,8.62
6.764,8.464
6.768,8.684
6.772,8.844
6.776,8.676
6.78,8.492
6.784,8.568
6.788,8.728
6.792,8.584
6.796,8.308
6.8,8.328
6.804,8.52
6.808,8.424
6.812,8.164
6.816,8.132
6.82,8.352
6.824,8.348
6.828,8.144
6.832,8.02
6.836,8.256
6.84,8.332
6.844,8.1
6.848,7.944
6.852,8.156
6.856,8.284
6.86,8.088
6.864,7.952
6.868,8.124
6.872,8.296
6.876,8.124
6.88,7.928
6.884,8.06
6.888,8.252
6.892,8.172
6.896,7.952
6.9,8.028
6.904,8.208
6.908,8.208
6.912,7.988
6.916,7.976
6.92,8.208
6.924,8.236
6.928,8.02
6.932,7.956
6.936,8.164
6.94,8.276
6.944,8.072
6.948,7.932
6.952,8.132
6.956,8.284
6.96,8.08
6.964,7.956
6.968,8.14
6.972,8.324
6.976,8.168
6.98,7.956
6.984,8.076
6.988,8.268
6.992,8.18
6.996,7.996
7,8.052
7.004,8.248
7.008,8.232
7.012,8
7.016,7.992
7.02,8.192
7.024,8.268
7.028,8.032
7.032,7.948
7.036,8.192
7.04,8.3
7.044,8.068
7.048,7.908
7.052,8.144
7.056,8.292
7.06,8.096
7.064,7.928
7.068,8.112
7.072,8.26
7.076,8.096
7.08,7.9
7.084,8.064
7.088,8.252
7.092,8.148
7.096,7.952
7.1,8.016
7.104,8.224
7.108,8.2
7.112,7.976
7.116,7.968
7.12,8.216
7.124,8.288
7.128,8.08
7.132,7.984
7.136,8.268
7.14,8.336
7.144,8.132
7.148,7.988
7.152,8.192
7.156,8.36
7.16,8.16
7.164,7.976
7.168,8.124
7.172,8.304
7.176,8.148
7.18,7.972
7.184,8.056
7.188,8.208
7.192,8.168
7.196,7.948
7.2,8
7.204,8.212
7.208,8.184
7.212,7.924
7.216,7.908
7.22,8.128
7.224,8.176
7.228,7.984
7.232,7.884
7.236,8.14
7.24,8.244
7.244,8.032
7.248,7.868
7.252,8.096
7.256,8.212
7.26,7.968
7.264,7.78
7.268,8.028
7.272,8.348
7.276,8.344
7.28,8.5
7.284,9.012
7.288,9.364
7.292,8.852
7.296,8.324
7.3,8.048
7.304,7.996
7.308,7.856
7.312,7.524
7.316,7.516
7.32,7.868
7.324,8.024
7.328,7.876
7.332,7.86
7.336,8.104
7.34,8.212
7.344,8
7.348,7.868
7.352,8.084
7.356,8.22
7.36,8.056
7.364,7.876
7.368,8.056
7.372,8.216
7.376,8.1
7.38,7.936
7.384,8.016
7.388,8.2
7.392,8.14
7.396,7.924
7.4,7.964
7.404,8.188
7.408,8.184
7.412,7.936
7.416,7.94
7.42,8.168
7.424,8.24
7.428,8.008
7.432,7.944
7.436,8.156
7.44,8.292
7.444,8.092
7.448,7.952
7.452,8.188
7.456,8.344
7.46,8.16
7.464,8.02
7.468,8.204
7.472,8.404
7.476,8.28
7.48,8.096
7.484,8.252
7.488,8.488
7.492,8.436
7.496,8.276
7.5,8.348
7.504,8.592
7.508,8.624
7.512,8.468
7.516,8.448
7.52,8.7
7.524,8.784
7.528,8.584
7.532,8.472
7.536,8.72
7.54,8.832
7.544,8.592
7.548,8.372
7.552,8.54
7.556,8.672
7.56,8.404
7.564,8.2
7.568,8.324
7.572,8.464
7.576,8.26
7.58,8.024
7.584,8.132
7.588,8.312
7.592,8.216
7.596,7.996
7.6,8.016
7.604,8.244
7.608,8.22
7.612,8.008
7.616,7.968
7.62,8.188
7.624,8.236
7.628,8.004
7.632,7.924
7.636,8.148
7.64,8.268
7.644,8.06
7.648,7.912
7.652,8.12
7.656,8.236
7.66,8.052
7.664,7.9
7.668,8.092
7.672,8.28
7.676,8.14
7.68,7.92
7.684,8.02
7.688,8.24
7.692,8.16
7.696,7.968
7.7,8.032
7.704,8.224
7.708,8.228
7.712,8.016
7.716,7.956
7.72,8.18
7.724,8.24
7.728,8.032
7.732,7.956
7.736,8.156
7.74,8.264
7.744,8.076
7.748,7.936
7.752,8.116
7.756,8.276
7.76,8.104
7.764,7.924
7.768,8.092
7.772,8.276
7.776,8.148
7.78,7.944
7.784,8.056
7.788,8.244
7.792,8.152
7.796,7.964
7.8,7.988
7.804,8.2
7.808,8.244
7.812,7.988
7.816,7.944
7.82,8.184
7.824,8.232
7.828,8.02
7.832,7.904
7.836,8.144
7.84,8.272
7.844,8.076
7.848,7.908
7.852,8.096
7.856,8.256
7.86,8.076
7.864,7.92
7.868,8.056
7.872,8.232
7.876,8.128
7.88,7.952
7.884,8.068
7.888,8.232
7.892,8.216
7.896,8.028
7.9,8.084
7.904,8.28
7.908,8.32
7.912,8.088
7.916,8.052
7.92,8.272
7.924,8.3
7.928,8.06
7.932,7.98
7.936,8.184
7.94,8.312
7.944,8.108
7.948,7.952
7.952,8.124
7.956,8.264
7.96,8.124
7.964,7.912
7.968,8.056
7.972,8.212
7.976,8.1
7.98,7.896
7.984,8.004
7.988,8.22
7.992,8.16
7.996,7.916
8,7.968
8.004,8.188
8.008,8.212
8.012,7.984
8.016,7.948
8.02,8.096
8.024,8.124
8.028,7.992
8.032,8.016
8.036,8.376
8.04,8.756
8.044,8.992
8.048,9.076
8.052,8.884
8.056,8.712
8.06,8.224
8.064,7.74
8.068,7.708
8.072,7.848
8.076,7.74
8.08,7.676
8.084,7.884
8.088,8.148
8.092,8.132
8.096,7.948
8.1,7.956
8.104,8.184
8.108,8.228
8.112,8.004
8.116,7.964
8.12,8.192
8.124,8.264
8.128,8.032
8.132,7.932
8.136,8.16
8.14,8.28
8.144,8.1
8.148,7.944
8.152,8.136
8.156,8.304
8.16,8.108
8.164,7.936
8.168,8.096
8.172,8.26
8.176,8.176
8.18,7.96
8.184,8.08
8.188,8.292
8.192,8.232
8.196,7.988
8.2,8.04
8.204,8.26
8.208,8.304
8.212,8.104
8.216,8.064
8.22,8.296
8.224,8.388
8.228,8.176
8.232,8.076
8.236,8.324
8.24,8.476
8.244,8.324
8.248,8.188
8.252,8.42
8.256,8.588
8.26,8.432
8.264,8.296
8.268,8.5
8.272,8.712
8.276,8.624
8.28,8.456
8.284,8.568
8.288,8.796
8.292,8.752
8.296,8.52
8.3,8.548
8.304,8.752
8.308,8.724
8.312,8.48
8.316,8.376
8.32,8.56
8.324,8.576
8.328,8.34
8.332,8.148
8.336,8.324
8.34,8.428
8.344,8.2
8.348,8.024
8.352,8.216
8.356,8.344
8.36,8.172
8.364,7.98
8.368,8.116
8.372,8.284
8.376,8.18
8.38,7.988
8.384,8.072
8.388,8.264
8.392,8.224
8.396,8.012
8.4,8.008
8.404,8.228
8.408,8.268
8.412,8.032
8.416,7.976
8.42,8.188
8.424,8.256
8.428,8.068
8.432,7.956
8.436,8.172
8.44,8.292
8.444,8.096
8.448,7.948
8.452,8.144
8.456,8.296
8.46,8.156
8.464,7.968
8.468,8.092
8.472,8.296
8.476,8.18
8.48,7.972
8.484,8.084
8.488,8.268
8.492,8.228
8.496,8.032
8.5,8.008
8.504,8.224
8.508,8.268
8.512,8.036
8.516,8.024
8.52,8.232
8.524,8.304
8.528,8.108
8.532,7.932
8.536,8.172
8.54,8.316
8.544,8.124
8.548,7.98
8.552,8.156
8.556,8.312
8.56,8.132
8.564,7.94
8.568,8.08
8.572,8.28
8.576,8.192
8.58,7.964
8.584,8.076
8.588,8.28
8.592,8.236
8.596,7.988
8.6,8.004
8.604,8.22
8.608,8.264
8.612,8.044
8.616,7.964
8.62,8.18
8.624,8.268
8.628,8.06
8.632,7.94
8.636,8.16
8.64,8.26
8.644,8.108
8.648,7.964
8.652,8.136
8.656,8.276
8.66,8.144
8.664,7.98
8.668,8.112
8.672,8.248
8.676,8.192
8.68,8.004
8.684,8.08
8.688,8.32
8.692,8.304
8.696,8.1
8.7,8.1
8.704,8.276
8.708,8.348
8.712,8.12
8.716,8.028
8.72,8.208
8.724,8.34
8.728,8.12
8.732,8
8.736,8.188
8.74,8.284
8.744,8.088
8.748,7.916
8.752,8.144
8.756,8.272
8.76,8.088
8.764,7.908
8.768,8.032
8.772,8.188
8.776,8.104
8.78,7.884
8.784,7.984
8.788,8.184
8.792,8.172
8.796,7.936
8.8,7.936
8.804,8.168
8.808,8.212
8.812,7.948
8.816,7.852
8.82,8.14
8.824,8.364
8.828,8.288
8.832,8.464
8.836,9.096
8.84,9.348
8.844,8.724
8.848,8.272
8.852,8.068
8.856,7.968
8.86,7.684
8.864,7.464
8.868,7.66
8.872,7.972
8.876,7.964
8.88,7.856
8.884,7.98
8.888,8.16
8.892,8.16
8.896,7.944
8.9,7.948
8.904,8.148
8.908,8.2
8.912,7.956
8.916,7.928
8.92,8.16
8.924,8.24
8.928,8.036
8.932,7.924
8.936,8.108
8.94,8.224
8.944,8.068
8.948,7.912
8.952,8.104
8.956,8.256
8.96,8.12
8.964,7.936
8.968,8.056
8.972,8.272
8.976,8.164
8.98,7.956
8.984,8.052
8.988,8.24
8.992,8.256
8.996,8.036
9,8.008
9.004,8.26
9.008,8.32
9.012,8.084
9.016,8.048
9.02,8.264
9.024,8.408
9.028,8.236
9.032,8.12
9.036,8.356
9.04,8.504
9.044,8.344
9.048,8.228
9.052,8.44
9.056,8.616
9.06,8.536
9.064,8.356
9.068,8.516
9.072,8.74
9.076,8.7
9.08,8.512
9.084,8.56
9.088,8.764
9.092,8.72
9.096,8.516
9.1,8.46
9.104,8.632
9.108,8.624
9.112,8.356
9.116,8.224
9.12,8.384
9.124,8.448
9.128,8.228
9.132,8.04
9.136,8.208
9.14,8.328
9.144,8.132
9.148,7.94
9.152,8.104
9.156,8.272
9.16,8.108
9.164,7.94
9.168,8.072
9.172,8.228
9.176,8.144
9.18,7.936
9.184,7.96
9.188,8.196
9.192,8.212
9.196,7.964
9.2,7.928
9.204,8.164
9.208,8.212
9.212,7.98
9.216,7.864
9.22,8.116
9.224,8.24
9.228,7.996
9.232,7.876
9.236,8.112
9.24,8.248
9.244,8.06
9.248,7.904
9.252,8.044
9.256,8.26
9.26,8.12
9.264,7.912
9.268,8.04
9.272,8.232
9.276,8.164
9.28,7.968
9.284,7.98
9.288,8.184
9.292,8.204
9.296,7.996
9.3,7.972
9.304,8.204
9.308,8.236
9.312,8.016
9.316,7.928
9.32,8.144
9.324,8.216
9.328,8.056
9.332,7.912
9.336,8.092
9.34,8.22
9.344,8.048
9.348,7.888
9.352,8.064
9.356,8.236
9.36,8.1
9.364,7.928
9.368,8.048
9.372,8.2
9.376,8.112
9.38,7.92
9.384,7.936
9.388,8.18
9.392,8.16
9.396,7.928
9.4,7.936
9.404,8.14
9.408,8.196
9.412,7.972
9.416,7.872
9.42,8.096
9.424,8.188
9.428,8.016
9.432,7.884
9.436,8.128
9.44,8.24
9.444,8.084
9.448,7.932
9.452,8.132
9.456,8.284
9.46,8.156
9.464,8.004
9.468,8.132
9.472,8.296
9.476,8.192
9.48,7.96
9.484,7.992
9.488,8.192
9.492,8.208
9.496,7.98
9.5,7.928
9.504,8.124
9.508,8.2
9.512,8
9.516,7.888
9.52,8.056
9.524,8.188
9.528,7.98
9.532,7.84
9.536,8.028
9.54,8.172
9.544,8.036
9.548,7.848
9.552,7.984
9.556,8.196
9.56,8.064
9.564,7.852
9.568,7.964
9.572,8.112
9.576,8.012
9.58,7.864
9.584,8
9.588,8.364
9.592,8.592
9.596,8.844
9.6,9.124
9.604,9.056
9.608,8.74
9.612,8.216
9.616,7.756
9.62,7.772
9.624,7.792
9.628,7.592
9.632,7.572
9.636,7.868
9.64,8.088
9.644,7.968
9.648,7.816
9.652,8.012
9.656,8.188
9.66,8.052
9.664,7.868
9.668,7.988
9.672,8.184
9.676,8.136
9.68,7.92
9.684,7.976
9.688,8.168
9.692,8.176
9.696,7.976
9.7,7.94
9.704,8.16
9.708,8.244
9.712,7.992
9.716,7.912
9.72,8.108
9.724,8.26
9.728,8.064
9.732,7.928
9.736,8.12
9.74,8.284
9.744,8.128
9.748,7.944
9.752,8.124
9.756,8.248
9.76,8.172
9.764,8.024
9.768,8.108
9.772,8.316
9.776,8.244
9.78,8.052
9.784,8.104
9.788,8.328
9.792,8.376
9.796,8.224
9.8,8.192
9.804,8.44
9.808,8.552
9.812,8.372
9.816,8.296
9.82,8.512
9.824,8.672
9.828,8.524
9.832,8.388
9.836,8.636
9.84,8.808
9.844,8.64
9.848,8.48
9.852,8.62
9.856,8.768
9.86,8.612
9.864,8.364
9.868,8.444
9.872,8.608
9.876,8.468
9.88,8.212
9.884,8.204
9.888,8.364
9.892,8.336
9.896,8.088
9.9,8.02
9.904,8.248
9.908,8.288
9.912,8.064
9.916,7.944
9.92,8.152
9.924,8.252
9.928,8.08
9.932,7.924
9.936,8.12
9.94,8.264
9.944,8.108
9.948,7.9
9.952,8.076
9.956,8.236
9.96,8.096
9.964,7.936
9.968,8.02
9.972,8.228
9.976,8.18
9.98,7.936
9.984,7.98
9.988,8.16
9.992,8.2
9.996,8.004
10,7.92
10.004,8.196
10.008,8.256
10.012,8.048
10.016,7.944
10.02,8.148
10.024,8.272
10.028,8.092
10.032,7.948
10.036,8.14
10.04,8.316
10.044,8.136
10.048,7.956
10.052,8.088
10.056,8.26
10.06,8.192
10.064,7.984
10.068,8.08
10.072,8.264
10.076,8.192
10.08,7.992
10.084,7.996
10.088,8.216
10.092,8.232
10.096,8.028
10.1,7.96
10.104,8.18
10.108,8.276
10.112,8.048
10.116,7.956
10.12,8.16
10.124,8.284
10.128,8.084
10.132,7.94
10.136,8.128
10.14,8.268
10.144,8.104
10.148,7.94
10.152,8.084
10.156,8.248
10.16,8.164
10.164,7.956
10.168,8.012
10.172,8.24
10.176,8.188
10.18,7.988
10.184,7.98
10.188,8.216
10.192,8.232
10.196,8.004
10.2,7.932
10.204,8.168
10.208,8.256
10.212,8.064
10.216,7.928
10.22,8.164
10.224,8.344
10.228,8.16
10.232,7.996
10.236,8.184
10.24,8.328
10.244,8.196
10.248,8.04
10.252,8.156
10.256,8.336
10.26,8.208
10.264,7.976
10.268,8.06
10.272,8.248
10.276,8.232
10.28,8.016
10.284,8.012
10.288,8.216
10.292,8.26
10.296,8.036
10.3,7.932
10.304,8.152
10.308,8.236
10.312,8
10.316,7.896
10.32,8.112
10.324,8.24
10.328,8.052
10.332,7.884
10.336,8.084
10.34,8.26
10.344,8.1
10.348,7.92
10.352,8.004
10.356,8.192
10.36,8.092
10.364,8.024
10.368,8.224
10.372,8.684
10.376,9.068
10.38,9.096
10.384,8.704
10.388,8.632
10.392,8.344
10.396,7.8
10.4,7.544
10.404,7.752
10.408,7.904
10.412,7.812
10.416,7.78
10.42,8.064
10.424,8.244
10.428,8.064
10.432,7.912
10.436,8.084
10.44,8.244
10.444,8.104
10.448,7.928
10.452,8.048
10.456,8.244
10.46,8.18
10.464,7.948
10.468,8.04
10.472,8.252
10.476,8.224
10.48,8.024
10.484,8.012
10.488,8.228
10.492,8.252
10.496,8.044
10.5,7.976
10.504,8.192
10.508,8.3
10.512,8.112
10.516,7.96
10.52,8.184
10.524,8.328
10.528,8.14
10.532,7.976
10.536,8.184
10.54,8.348
10.544,8.228
10.548,8.056
10.552,8.2
10.556,8.384
10.56,8.32
10.564,8.112
10.568,8.212
10.572,8.444
10.576,8.46
10.58,8.26
10.584,8.28
10.588,8.516
10.592,8.616
10.596,8.416
10.6,8.38
10.604,8.612
10.608,8.744
10.612,8.58
10.616,8.464
10.62,8.7
10.624,8.84
10.628,8.648
10.632,8.508
10.636,8.652
10.64,8.8
10.644,8.624
10.648,8.372
10.652,8.468
10.656,8.592
10.66,8.444
10.664,8.224
10.668,8.208
10.672,8.42
10.676,8.372
10.68,8.12
10.684,8.084
10.688,8.272
10.692,8.32
10.696,8.088
10.7,7.968
10.704,8.22
10.708,8.316
10.712,8.108
10.716,7.972
10.72,8.164
10.724,8.312
10.728,8.128
10.732,7.924
10.736,8.144
10.74,8.276
10.744,8.136
10.748,7.968
10.752,8.076
10.756,8.26
10.76,8.204
10.764,7.972
10.768,8.016
10.772,8.22
10.776,8.232
10.78,8.008
10.784,8.008
10.788,8.204
10.792,8.264
10.796,8.04
10.8,7.968
10.804,8.184
10.808,8.304
10.812,8.072
10.816,7.932
10.82,8.18
10.824,8.328
10.828,8.156
10.832,7.952
10.836,8.136
10.84,8.3
10.844,8.14
10.848,7.988
10.852,8.124
10.856,8.308
10.86,8.216
10.864,7.98
10.868,8.004
10.872,8.264
10.876,8.236
10.88,8.008
10.884,8.016
10.888,8.228
10.892,8.284
10.896,8.04
10.9,7.952
10.904,8.18
10.908,8.296
10.912,8.104
10.916,7.94
10.92,8.16
10.924,8.272
10.928,8.112
10.932,7.948
10.936,8.1
10.94,8.288
10.944,8.16
10.948,7.956
10.952,8.084
10.956,8.26
10.96,8.184
10.964,7.988
10.968,8.008
10.972,8.228
10.976,8.24
10.98,8.032
10.984,8.044
10.988,8.292
10.992,8.348
10.996,8.12
11,8.028
11.004,8.28
11.008,8.4
11.012,8.176
11.016,8.012
11.02,8.18
11.024,8.34
11.028,8.132
11.032,7.956
11.036,8.148
11.04,8.292
11.044,8.136
11.048,7.944
11.052,8.072
11.056,8.26
11.06,8.128
11.064,7.944
11.068,7.976
11.072,8.184
11.076,8.18
11.08,7.964
11.084,7.936
11.088,8.164
11.092,8.216
11.096,8.024
11.1,7.908
11.104,8.144
11.108,8.244
11.112,8.024
11.116,7.844
11.12,8.04
11.124,8.248
11.128,8.208
11.132,8.184
11.136,8.66
11.14,9.216
11.144,9.204
11.148,8.596
11.152,8.456
11.156,8.28
11.16,7.924
11.164,7.568
11.168,7.552
11.172,7.824
11.176,7.936
11.18,7.836
11.184,7.848
11.188,8.168
11.192,8.24
11.196,8.016
11.2,7.904
11.204,8.136
11.208,8.264
11.212,8.056
11.216,7.932
11.22,8.156
11.224,8.296
11.228,8.104
11.232,7.956
11.236,8.112
11.24,8.28
11.244,8.16
11.248,7.976
11.252,8.076
11.256,8.272
11.26,8.216
11.264,7.988
11.268,8.044
11.272,8.26
11.276,8.24
11.28,8.048
11.284,8.016
11.288,8.244
11.292,8.32
11.296,8.096
11.3,8.02
11.304,8.236
11.308,8.376
11.312,8.188
11.316,8.056
11.32,8.296
11.324,8.42
11.328,8.264
11.332,8.1
11.336,8.304
11.34,8.528
11.344,8.428
11.348,8.264
11.352,8.412
11.356,8.636
11.36,8.596
11.364,8.424
11.368,8.468
11.372,8.712
11.376,8.776
11.38,8.6
11.384,8.56
11.388,8.76
11.392,8.852
11.396,8.6
11.4,8.492
11.404,8.676
11.408,8.732
11.412,8.5
11.416,8.316
11.42,8.48
11.424,8.588
11.428,8.32
11.432,8.128
11.436,8.204
11.44,8.344
11.444,8.24
11.448,8.008
11.452,8.136
11.456,8.336
11.46,8.2
11.464,7.98
11.468,8.016
11.472,8.236
11.476,8.264
11.48,8.044
11.484,7.996
11.488,8.232
11.492,8.276
11.496,8.06
11.5,7.948
11.504,8.172
11.508,8.276
11.512,8.072
11.516,7.924
11.52,8.144
11.524,8.28
11.528,8.136
11.532,7.956
11.536,8.092
11.54,8.28
11.544,8.172
11.548,7.956
11.552,8.088
11.556,8.28
11.56,8.228
11.564,8.012
11.568,8.048
11.572,8.26
11.576,8.26
11.58,8.044
11.584,8.028
11.588,8.248
11.592,8.332
11.596,8.104
11.6,7.98
11.604,8.228
11.608,8.336
11.612,8.112
11.616,7.984
11.62,8.18
11.624,8.34
11.628,8.152
11.632,7.984
11.636,8.132
11.64,8.292
11.644,8.188
11.648,7.992
11.652,8.104
11.656,8.296
11.66,8.244
11.664,8.028
11.668,8.048
11.672,8.26
11.676,8.28
11.68,8.076
11.684,7.988
11.688,8.22
11.692,8.324
11.696,8.112
11.7,7.972
11.704,8.2
11.708,8.288
11.712,8.12
11.716,7.988
11.72,8.18
11.724,8.328
11.728,8.172
11.732,7.972
11.736,8.088
11.74,8.296
11.744,8.172
11.748,7.984
11.752,8.072
11.756,8.304
11.76,8.276
11.764,8.048
11.768,8.124
11.772,8.356
11.776,8.372
11.78,8.14
11.784,8.108
11.788,8.308
11.792,8.428
11.796,8.176
11.8,8.044
11.804,8.232
11.808,8.348
11.812,8.164
11.816,7.988
11.82,8.18
11.824,8.36
11.828,8.168
11.832,7.984
11.836,8.14
11.84,8.292
11.844,8.164
11.848,7.936
11.852,8.036
11.856,8.224
11.86,8.216
11.864,8
11.868,7.996
11.872,8.204
11.876,8.248
11.88,8.016
11.884,7.936
11.888,8.196
11.892,8.28
11.896,8.028
11.9,7.872
11.904,8.148
11.908,8.452
11.912,8.364
11.916,8.524
11.92,9.152
11.924,9.488
11.928,8.944
11.932,8.472
11.936,8.26
11.94,8.112
11.944,7.824
11.948,7.58
11.952,7.684
11.956,8.016
11.96,8.068
11.964,7.932
11.968,7.996
11.972,8.232
11.976,8.26
11.98,8.044
11.984,7.968
11.988,8.184
11.992,8.28
11.996,8.088
12,7.968
12.004,8.2
12.008,8.3
12.012,8.128
12.016,7.996
12.02,8.148
12.024,8.32
12.028,8.18
12.032,8.02
12.036,8.156
12.04,8.328
12.044,8.208
12.048,8.024
12.052,8.12
12.056,8.324
12.06,8.288
12.064,8.076
12.068,8.068
12.072,8.312
12.076,8.332
12.08,8.144
12.084,8.072
12.088,8.296
12.092,8.408
12.096,8.204
12.1,8.08
12.104,8.332
12.108,8.496
12.112,8.308
12.116,8.164
12.12,8.38
12.124,8.592
12.128,8.48
12.132,8.32
12.136,8.468
12.14,8.704
12.144,8.636
12.148,8.448
12.152,8.56
12.156,8.812
12.16,8.784
12.164,8.576
12.168,8.62
12.172,8.848
12.176,8.864
12.18,8.624
12.184,8.492
12.188,8.684
12.192,8.724
12.196,8.448
12.2,8.32
12.204,8.472
12.208,8.556
12.212,8.328
12.216,8.152
12.22,8.296
12.224,8.44
12.228,8.244
12.232,8.068
12.236,8.172
12.24,8.352
12.244,8.248
12.248,8.04
12.252,8.12
12.256,8.312
12.26,8.296
12.264,8.076
12.268,8.088
12.272,8.308
12.276,8.32
12.28,8.1
12.284,7.992
12.288,8.252
12.292,8.364
12.296,8.136
12.3,8.028
12.304,8.236
12.308,8.364
12.312,8.164
12.316,8
12.32,8.16
12.324,8.34
12.328,8.244
12.332,8.06
12.336,8.156
12.34,8.356
12.344,8.272
12.348,8.06
12.352,8.136
12.356,8.34
12.36,8.3
12.364,8.104
12.368,8.084
12.372,8.308
12.376,8.348
12.38,8.116
12.384,8.028
12.388,8.28
12.392,8.368
12.396,8.18
12.4,8.024
12.404,8.228
12.408,8.34
12.412,8.176
12.416,8.004
12.42,8.208
12.424,8.356
12.428,8.196
12.432,8.028
12.436,8.172
12.44,8.364
12.444,8.232
12.448,8.032
12.452,8.116
12.456,8.304
12.46,8.264
12.464,8.084
12.468,8.036
12.472,8.276
12.476,8.336
12.48,8.124
12.484,8.02
12.488,8.26
12.492,8.352
12.496,8.148
12.5,8.008
12.504,8.22
12.508,8.368
12.512,8.148
12.516,8.008
12.52,8.192
12.524,8.336
12.528,8.224
12.532,7.996
12.536,8.132
12.54,8.324
12.544,8.248
12.548,8.036
12.552,8.1
12.556,8.308
12.56,8.3
12.564,8.104
12.568,8.12
12.572,8.328
12.576,8.404
12.58,8.188
12.584,8.088
12.588,8.324
12.592,8.428
12.596,8.248
12.6,8.104
12.604,8.26
12.608,8.376
12.612,8.208
12.616,8.032
12.62,8.216
12.624,8.348
12.628,8.216
12.632,8.016
12.636,8.16
12.64,8.352
12.644,8.232
12.648,8.016
12.652,8.036
12.656,8.228
12.66,8.244
12.664,8.04
12.668,8.016
12.672,8.236
12.676,8.296
12.68,8.068
12.684,7.988
12.688,8.192
12.692,8.296
12.696,8.072
12.7,7.916
12.704,8.168
12.708,8.44
12.712,8.368
12.716,8.404
12.72,8.988
12.724,9.488
12.728,9.108
12.732,8.56
12.736,8.4
12.74,8.168
12.744,7.9
12.748,7.612
12.752,7.68
12.756,8.024
12.76,8.12
12.764,7.964
12.768,7.992
12.772,8.216
12.776,8.288
12.78,8.076
12.784,7.992
12.788,8.22
12.792,8.348
12.796,8.128
12.8,7.984
12.804,8.204
12.808,8.348
12.812,8.164
12.816,8.012
12.82,8.18
12.824,8.312
12.828,8.224
12.832,8.04
12.836,8.156
12.84,8.364
12.844,8.296
12.848,8.076
12.852,8.132
12.856,8.328
12.86,8.328
12.864,8.096
12.868,8.112
12.872,8.304
12.876,8.396
12.88,8.184
12.884,8.076
12.888,8.316
12.892,8.436
12.896,8.252
12.9,8.104
12.904,8.376
12.908,8.52
12.912,8.356
12.916,8.2
12.92,8.4
12.924,8.584
12.928,8.472
12.932,8.324
12.936,8.472
12.94,8.716
12.944,8.656
12.948,8.488
12.952,8.564
12.956,8.808
12.96,8.828
12.964,8.62
12.968,8.624
12.972,8.86
12.976,8.912
12.98,8.672
12.984,8.556
12.988,8.768
12.992,8.828
12.996,8.564
13,8.376
13.004,8.536
13.008,8.632
13.012,8.412
13.016,8.208
13.02,8.348
13.024,8.492
13.028,8.364
13.032,8.144
13.036,8.24
13.04,8.416
13.044,8.332
13.048,8.084
13.052,8.124
13.056,8.36
13.06,8.372
13.064,8.148
13.068,8.12
13.072,8.284
13.076,8.38
13.08,8.168
13.084,8.056
13.088,8.276
13.092,8.392
13.096,8.196
13.1,8.056
13.104,8.26
13.108,8.396
13.112,8.236
13.116,8.056
13.12,8.232
13.124,8.404
13.128,8.252
13.132,8.064
13.136,8.18
13.14,8.368
13.144,8.308
13.148,8.104
13.152,8.128
13.156,8.332
13.16,8.368
13.164,8.128
13.168,8.12
13.172,8.328
13.176,8.388
13.18,8.192
13.184,8.1
13.188,8.276
13.192,8.392
13.196,8.188
13.2,8.048
13.204,8.256
13.208,8.412
13.212,8.204
13.216,8.064
13.22,8.212
13.224,8.388
13.228,8.22
13.232,8.052
13.236,8.168
13.24,8.376
13.244,8.288
13.248,8.08
13.252,8.12
13.256,8.324
13.26,8.312
13.264,8.108
13.268,8.084
13.272,8.296
13.276,8.356
13.28,8.172
13.284,8.036
13.288,8.24
13.292,8.384
13.296,8.18
13.3,8.004
13.304,8.232
13.308,8.376
13.312,8.196
13.316,8.012
13.32,8.192
13.324,8.38
13.328,8.228
13.332,8.044
13.336,8.152
13.34,8.328
13.344,8.3
13.348,8.076
13.352,8.128
13.356,8.332
13.36,8.38
13.364,8.18
13.368,8.144
13.372,8.36
13.376,8.432
13.38,8.252
13.384,8.124
13.388,8.292
13.392,8.38
13.396,8.196
13.4,8.052
13.404,8.22
13.408,8.36
13.412,8.2
13.416,7.976
13.42,8.168
13.424,8.32
13.428,8.216
13.432,7.96
13.436,8.092
13.44,8.268
13.444,8.188
13.448,8.008
13.452,8.032
13.456,8.268
13.46,8.256
13.464,8.04
13.468,8
13.472,8.216
13.476,8.332
13.48,8.076
13.484,7.96
13.488,8.156
13.492,8.304
13.496,8.18
13.5,8.18
13.504,8.536
13.508,9.084
13.512,9.268
13.516,8.912
13.52,8.644
13.524,8.5
13.528,8.012
13.532,7.664
13.536,7.648
13.54,7.876
13.544,7.976
13.548,7.86
13.552,7.964
13.556,8.216
13.56,8.22
13.564,8.044
13.568,8.008
13.572,8.236
13.576,8.344
13.58,8.088
13.584,8.012
13.588,8.228
13.592,8.336
13.596,8.168
13.6,8.024
13.604,8.216
13.608,8.356
13.612,8.176
13.616,8
13.62,8.184
13.624,8.34
13.628,8.192
13.632,8.008
13.636,8.136
13.64,8.316
13.644,8.288
13.648,8.1
13.652,8.124
13.656,8.34
13.66,8.36
13.664,8.132
13.668,8.1
13.672,8.34
13.676,8.424
13.68,8.228
13.684,8.128
13.688,8.332
13.692,8.488
13.696,8.316
13.7,8.168
13.704,8.392
13.708,8.556
13.712,8.44
13.716,8.292
13.72,8.448
13.724,8.672
13.728,8.536
13.732,8.376
13.736,8.492
13.74,8.728
13.744,8.732
13.748,8.576
13.752,8.6
13.756,8.808
13.76,8.836
13.764,8.636
13.768,8.56
13.772,8.748
13.776,8.796
13.78,8.56
13.784,8.396
13.788,8.596
13.792,8.676
13.796,8.436
13.8,8.212
13.804,8.348
13.808,8.456
13.812,8.264
13.816,8.068
13.82,8.18
13.824,8.364
13.828,8.256
13.832,8.024
13.836,8.116
13.84,8.308
13.844,8.28
13.848,8.056
13.852,8.064
13.856,8.28
13.86,8.304
13.864,8.068
13.868,8.024
13.872,8.244
13.876,8.312
13.88,8.128
13.884,7.996
13.888,8.228
13.892,8.34
13.896,8.124
13.9,7.952
13.904,8.168
13.908,8.312
13.912,8.164
13.916,7.996
13.92,8.132
13.924,8.3
13.928,8.212
13.932,8
13.936,8.092
13.94,8.328
13.944,8.296
13.948,8.092
13.952,8.076
13.956,8.28
13.96,8.3
13.964,8.092
13.968,8.02
13.972,8.28
13.976,8.352
13.98,8.144
13.984,8.012
13.988,8.212
13.992,8.316
13.996,8.124
14,7.984
14.004,8.148
14.008,8.324
14.012,8.184
14.016,8
14.02,8.104
14.024,8.42
14.028,8.128
14.032,7.992
14.036,8.112
14.04,8.38
14.044,8.192
14.048,8
14.052,8.036
14.056,8.356
14.06,8.228
14.064,8.032
14.068,8.004
14.072,8.328
14.076,8.236
14.08,8.052
14.084,7.988
14.088,8.26
14.092,8.296
14.096,8.048
14.1,8.02
14.104,8.188
14.108,8.312
14.112,8.064
14.116,7.956
14.12,8.148
14.124,8.384
14.128,8.136
14.132,8.02
14.136,8.128
14.14,8.408
14.144,8.212
14.148,8.092
14.152,8.12
14.156,8.416
14.16,8.256
14.164,8.112
14.168,8.044
14.172,8.34
14.176,8.208
14.18,8.104
14.184,8.024
14.188,8.292
14.192,8.284
14.196,8.088
14.2,7.996
14.204,8.224
14.208,8.28
14.212,8.06
14.216,7.96
14.22,8.1
14.224,8.276
14.228,8.096
14.232,7.968
14.236,8.028
14.24,8.284
14.244,8.116
14.248,8
14.252,7.996
14.256,8.288
14.26,8.14
14.264,7.988
14.268,7.888
14.272,8.192
14.276,8.24
14.28,8.232
14.284,8.308
14.288,9.004
14.292,9.312
14.296,9.008
14.3,8.484
14.304,8.468
14.308,8.168
14.312,7.84
14.316,7.624
14.32,7.7
14.324,7.908
14.328,7.904
14.332,7.856
14.336,8.02
14.34,8.252
14.344,8.116
14.348,7.988
14.352,7.996
14.356,8.276
14.36,8.192
14.364,8.044
14.368,8.004
14.372,8.292
14.376,8.232
14.38,8.124
14.384,7.984
14.388,8.272
14.392,8.24
14.396,8.124
14.4,7.988
14.404,8.228
14.408,8.204
14.412,8.108
14.416,8.036
14.42,8.188
14.424,8.264
14.428,8.188
14.432,8.068
14.436,8.128
14.44,8.316
14.444,8.22
14.448,8.088
14.452,8.088
14.456,8.368
14.46,8.296
14.464,8.18
14.468,8.1
14.472,8.428
14.476,8.364
14.48,8.256
14.484,8.2
14.488,8.508
14.492,8.48
14.496,8.396
14.5,8.292
14.504,8.56
14.508,8.604
14.512,8.532
14.516,8.48
14.52,8.652
14.524,8.72
14.528,8.684
14.532,8.576
14.536,8.66
14.54,8.828
14.544,8.74
14.548,8.58
14.552,8.536
14.556,8.752
14.56,8.664
14.564,8.48
14.568,8.356
14.572,8.568
14.576,8.476
14.58,8.276
14.584,8.12
14.588,8.384
14.592,8.344
14.596,8.188
14.6,8.06
14.604,8.276
14.608,8.256
14.612,8.192
14.616,8.044
14.62,8.208
14.624,8.252
14.628,8.184
14.632,8.06
14.636,8.132
14.64,8.252
14.644,8.22
14.648,8.036
14.652,8.04
14.656,8.228
14.66,8.248
14.664,8.096
14.668,8.024
14.672,8.256
14.676,8.232
14.68,8.1
14.684,7.992
14.688,8.28
14.692,8.224
14.696,8.12
14.7,8.008
14.704,8.232
14.708,8.24
14.712,8.196
14.716,8.064
14.72,8.196
14.724,8.252
14.728,8.2
14.732,8.084
14.736,8.1
14.74,8.24
14.744,8.24
14.748,8.068
14.752,8.1
14.756,8.256
14.76,8.264
14.764,8.116
14.768,8.048
14.772,8.284
14.776,8.264
14.78,8.124
14.784,8.02
14.788,8.276
14.792,8.244
14.796,8.148
14.8,8.044
14.804,8.224
14.808,8.244
14.812,8.176
14.816,8.024
14.82,8.164
14.824,8.228
14.828,8.192
14.832,8.048
14.836,8.1
14.84,8.196
14.844,8.22
14.848,8.06
14.852,8.036
14.856,8.228
14.86,8.24
14.864,8.076
14.868,8.02
14.872,8.232
14.876,8.244
14.88,8.08
14.884,7.992
14.888,8.248
14.892,8.244
14.896,8.136
14.9,8.012
14.904,8.208
14.908,8.228
14.912,8.188
14.916,8.06
14.92,8.244
14.924,8.304
14.928,8.268
14.932,8.12
14.936,8.2
14.94,8.312
14.944,8.324
14.948,8.116
14.952,8.08
14.956,8.26
14.96,8.26
14.964,8.104
14.968,8.032
14.972,8.236
14.976,8.236
14.98,8.104
14.984,8.028
14.988,8.228
14.992,8.22
14.996,8.116
15,7.976
15.004,8.176
15.008,8.184
15.012,8.12
15.016,7.972
15.02,8.128
15.024,8.18
15.028,8.164
15.032,7.996
15.036,8.06
15.04,8.164
15.044,8.14
15.048,7.956
15.052,7.996
15.056,8.272
15.06,8.464
15.064,8.52
15.068,8.864
15.072,9.26
15.076,8.948
15.08,8.488
15.084,8.064
15.088,7.984
15.092,7.856
15.096,7.704
15.1,7.628
15.104,7.932
15.108,8.028
15.112,8.024
15.116,7.952
15.12,8.112
15.124,8.16
15.128,8.16
15.132,8.016
15.136,8.088
15.14,8.18
15.144,8.188
15.148,8.076
15.152,8.024
15.156,8.172
15.16,8.252
15.164,8.096
15.168,8.02
15.172,8.24
15.176,8.252
15.18,8.104
15.184,8
15.188,8.216
15.192,8.224
15.196,8.124
15.2,8.028
15.204,8.244
15.208,8.224
15.212,8.184
15.216,8.056
15.22,8.184
15.224,8.244
15.228,8.236
15.232,8.052
15.236,8.156
15.24,8.268
15.244,8.268
15.248,8.128
15.252,8.14
15.256,8.312
15.26,8.38
15.264,8.22
15.268,8.168
15.272,8.408
15.276,8.484
15.28,8.38
15.284,8.316
15.288,8.532
15.292,8.596
15.296,8.512
15.3,8.4
15.304,8.652
15.308,8.684
15.312,8.624
15.316,8.5
15.32,8.652
15.324,8.692
15.328,8.676
15.332,8.512
15.336,8.524
15.34,8.584
15.344,8.548
15.348,8.324
15.352,8.264
15.356,8.368
15.36,8.396
15.364,8.204
15.368,8.124
15.372,8.28
15.376,8.292
15.38,8.148
15.384,8.008
15.388,8.212
15.392,8.232
15.396,8.148
15.4,7.996
15.404,8.208
15.408,8.216
15.412,8.152
15.416,7.996
15.42,8.112
15.424,8.184
15.428,8.148
15.432,7.996
15.436,8.052
15.44,8.16
15.444,8.184
15.448,8.008
15.452,7.972
15.456,8.148
15.46,8.204
15.464,8.064
15.468,7.956
15.472,8.172
15.476,8.244
15.48,8.108
15.484,7.984
15.488,8.196
15.492,8.22
15.496,8.092
15.5,7.984
15.504,8.156
15.508,8.22
15.512,8.18
15.516,8.02
15.52,8.112
15.524,8.172
15.528,8.172
15.532,8.004
15.536,8.048
15.54,8.176
15.544,8.212
15.548,8.02
15.552,7.996
15.556,8.136
15.56,8.228
15.564,8.044
15.568,7.956
15.572,8.176
15.576,8.228
15.58,8.072
15.584,7.928
15.588,8.116
15.592,8.204
15.596,8.092
15.6,7.968
15.604,8.144
15.608,8.172
15.612,8.104
15.616,7.944
15.62,8.08
15.624,8.156
15.628,8.128
15.632,7.96
15.636,7.996
15.64,8.136
15.644,8.164
15.648,7.984
15.652,7.944
15.656,8.144
15.66,8.188
15.664,8
15.668,7.92
15.672,8.152
15.676,8.18
15.68,8.028
15.684,7.928
15.688,8.12
15.692,8.16
15.696,8.088
15.7,8.008
15.704,8.184
15.708,8.228
15.712,8.184
15.716,7.988
15.72,8.104
15.724,8.196
15.728,8.172
15.732,7.972
15.736,8.016
15.74,8.16
15.744,8.16
15.748,8.004
15.752,7.96
15.756,8.112
15.76,8.16
15.764,8.012
15.768,7.9
15.772,8.088
15.776,8.112
15.78,7.972
15.784,7.876
15.788,8.064
15.792,8.088
15.796,7.992
15.8,7.864
15.804,8.044
15.808,8.092
15.812,8.04
15.816,7.88
15.82,7.984
15.824,8.064
15.828,7.988
15.832,7.84
15.836,7.96
15.84,8.264
15.844,8.452
15.848,8.636
15.852,8.992
15.856,9.128
15.86,8.732
15.864,8.296
15.868,7.892
15.872,7.832
15.876,7.76
15.88,7.572
15.884,7.528
15.888,7.844
15.892,7.956
15.896,7.96
15.9,7.872
15.904,8.044
15.908,8.116
15.912,8.06
15.916,7.888
15.92,8.008
15.924,8.112
15.928,8.084
15.932,7.944
15.936,7.94
15.94,8.112
15.944,8.16
15.948,7.96
15.952,7.92
15.956,8.112
15.96,8.152
15.964,8.008
15.968,7.936
15.972,8.124
15.976,8.18
15.98,8.044
15.984,7.912
15.988,8.116
15.992,8.16
15.996,8.08
16,7.972
16.004,8.128
16.008,8.22
16.012,8.18
16.016,8.008
16.02,8.112
16.024,8.212
16.028,8.2
16.032,8.088
16.036,8.12
16.04,8.296
16.044,8.336
16.048,8.208
16.052,8.164
16.056,8.38
16.06,8.472
16.064,8.292
16.068,8.264
16.072,8.512
16.076,8.588
16.08,8.456
16.084,8.388
16.088,8.6
16.092,8.644
16.096,8.588
16.1,8.492
16.104,8.64
16.108,8.684
16.112,8.608
16.116,8.424
16.12,8.484
16.124,8.548
16.128,8.468
16.132,8.268
16.136,8.22
16.14,8.348
16.144,8.34
16.148,8.14
16.152,8.056
16.156,8.216
16.16,8.228
16.164,8.032
16.168,7.956
16.172,8.152
16.176,8.22
16.18,8.08
16.184,7.964
16.188,8.136
16.192,8.212
16.196,8.056
16.2,7.936
16.204,8.084
16.208,8.152
16.212,8.104
16.216,7.964
16.22,8.024
16.224,8.144
16.228,8.128
16.232,7.98
16.236,7.984
16.24,8.172
16.244,8.184
16.248,8.024
16.252,7.932
16.256,8.144
16.26,8.232
16.264,8.04
16.268,7.944
16.272,8.164
16.276,8.208
16.28,8.108
16.284,8.008
16.288,8.176
16.292,8.236
16.296,8.116
16.3,7.988
16.304,8.14
16.308,8.216
16.312,8.168
16.316,8.012
16.32,8.096
16.324,8.204
16.328,8.2
16.332,8.02
16.336,8.04
16.34,8.192
16.344,8.22
16.348,8.06
16.352,8.012
16.356,8.192
16.36,8.256
16.364,8.064
16.368,8.012
16.372,8.192
16.376,8.236
16.38,8.116
16.384,7.988
16.388,8.184
16.392,8.224
16.396,8.124
16.4,8
16.404,8.136
16.408,8.22
16.412,8.184
16.416,8.044
16.42,8.088
16.424,8.22
16.428,8.212
16.432,8.04
16.436,8.032
16.44,8.24
16.444,8.228
16.448,8.068
16.452,8.04
16.456,8.228
16.46,8.252
16.464,8.096
16.468,8.028
16.472,8.216
16.476,8.3
16.48,8.18
16.484,8.084
16.488,8.3
16.492,8.336
16.496,8.232
16.5,8.112
16.504,8.268
16.508,8.356
16.512,8.26
16.516,8.116
16.52,8.176
16.524,8.312
16.528,8.26
16.532,8.096
16.536,8.128
16.54,8.268
16.544,8.272
16.548,8.112
16.552,8.064
16.556,8.244
16.56,8.232
16.564,8.06
16.568,7.996
16.572,8.164
16.576,8.244
16.58,8.132
16.584,8.004
16.588,8.188
16.592,8.244
16.596,8.104
16.6,8.02
16.604,8.136
16.608,8.212
16.612,8.072
16.616,7.952
16.62,8.104
16.624,8.412
16.628,8.516
16.632,8.684
16.636,9.144
16.64,9.4
16.644,8.972
16.648,8.496
16.652,8.008
16.656,7.952
16.66,7.848
16.664,7.652
16.668,7.676
16.672,7.98
16.676,8.14
16.68,8.044
16.684,7.996
16.688,8.148
16.692,8.2
16.696,8.128
16.7,7.996
16.704,8.124
16.708,8.24
16.712,8.188
16.716,8.032
16.72,8.096
16.724,8.252
16.728,8.204
16.732,8.064
16.736,8.068
16.74,8.236
16.744,8.252
16.748,8.096
16.752,8.028
16.756,8.236
16.76,8.256
16.764,8.116
16.768,8.04
16.772,8.204
16.776,8.272
16.78,8.148
16.784,8.064
16.788,8.232
16.792,8.316
16.796,8.192
16.8,8.076
16.804,8.224
16.808,8.328
16.812,8.268
16.816,8.144
16.82,8.228
16.824,8.38
16.828,8.384
16.832,8.236
16.836,8.26
16.84,8.464
16.844,8.544
16.848,8.388
16.852,8.396
16.856,8.616
16.86,8.684
16.864,8.552
16.868,8.508
16.872,8.7
16.876,8.796
16.88,8.676
16.884,8.572
16.888,8.748
16.892,8.836
16.896,8.672
16.9,8.496
16.904,8.604
16.908,8.66
16.912,8.548
16.916,8.344
16.92,8.324
16.924,8.468
16.928,8.388
16.932,8.188
16.936,8.18
16.94,8.312
16.944,8.312
16.948,8.136
16.952,8.068
16.956,8.276
16.96,8.288
16.964,8.108
16.968,8.032
16.972,8.184
16.976,8.268
16.98,8.136
16.984,8.028
16.988,8.188
16.992,8.28
16.996,8.144
17,8.016
17.004,8.152
17.008,8.252
17.012,8.152
17.016,8.036
17.02,8.052
17.024,8.264
17.028,8.224
17.032,8.056
17.036,8.024
17.04,8.232
17.044,8.24
17.048,8.088
17.052,8.04
17.056,8.228
17.06,8.292
17.064,8.096
17.068,8.012
17.072,8.212
17.076,8.272
17.08,8.148
17.084,8.036
17.088,8.204
17.092,8.292
17.096,8.156
17.1,8.028
17.104,8.148
17.108,8.272
17.112,8.164
17.116,8.036
17.12,8.112
17.124,8.248
17.128,8.22
17.132,8.04
17.136,8.04
17.14,8.212
17.144,8.232
17.148,8.096
17.152,8.044
17.156,8.212
17.16,8.248
17.164,8.088
17.168,8.028
17.172,8.212
17.176,8.252
17.18,8.092
17.184,8.008
17.188,8.176
17.192,8.26
17.196,8.128
17.2,8.004
17.204,8.112
17.208,8.228
17.212,8.16
17.216,8.012
17.22,8.092
17.224,8.248
17.228,8.204
17.232,8.06
17.236,8.048
17.24,8.228
17.244,8.248
17.248,8.056
17.252,8.032
17.256,8.216
17.26,8.284
17.264,8.112
17.268,8.056
17.272,8.256
17.276,8.34
17.28,8.188
17.284,8.08
17.288,8.256
17.292,8.356
17.296,8.232
17.3,8.124
17.304,8.2
17.308,8.316
17.312,8.232
17.316,8.072
17.32,8.112
17.324,8.268
17.328,8.232
17.332,8.032
17.336,8.048
17.34,8.236
17.344,8.216
17.348,8.048
17.352,7.996
17.356,8.172
17.36,8.208
17.364,8.048
17.368,7.996
17.372,8.16
17.376,8.212
17.38,8.076
17.384,7.98
17.388,8.124
17.392,8.224
17.396,8.104
17.4,7.932
17.404,7.996
17.408,8.196
17.412,8.236
17.416,8.212
17.42,8.428
17.424,9.012
17.428,9.284
17.432,8.808
17.436,8.456
17.44,8.344
17.444,8.024
17.448,7.712
17.452,7.596
17.456,7.772
17.46,7.948
17.464,7.92
17.468,7.92
17.472,8.152
17.476,8.24
17.48,8.08
17.484,7.976
17.488,8.152
17.492,8.24
17.496,8.124
17.5,7.988
17.504,8.112
17.508,8.252
17.512,8.152
17.516,8.032
17.52,8.096
17.524,8.26
17.528,8.22
17.532,8.032
17.536,8.04
17.54,8.22
17.544,8.236
17.548,8.068
17.552,8.024
17.556,8.224
17.56,8.272
17.564,8.116
17.568,8.04
17.572,8.196
17.576,8.304
17.58,8.172
17.584,8.06
17.588,8.212
17.592,8.32
17.596,8.22
17.6,8.112
17.604,8.204
17.608,8.376
17.612,8.304
17.616,8.152
17.62,8.248
17.624,8.444
17.628,8.42
17.632,8.292
17.636,8.384
17.64,8.544
17.644,8.596
17.648,8.44
17.652,8.432
17.656,8.648
17.66,8.752
17.664,8.6
17.668,8.516
17.672,8.72
17.676,8.828
17.68,8.664
17.684,8.52
17.688,8.668
17.692,8.776
17.696,8.576
17.7,8.388
17.704,8.436
17.708,8.536
17.712,8.384
17.716,8.192
17.72,8.24
17.724,8.38
17.728,8.328
17.732,8.136
17.736,8.096
17.74,8.288
17.744,8.288
17.748,8.104
17.752,8.036
17.756,8.228
17.76,8.276
17.764,8.128
17.768,8.028
17.772,8.224
17.776,8.26
17.78,8.112
17.784,8.024
17.788,8.16
17.792,8.26
17.796,8.14
17.8,8.008
17.804,8.096
17.808,8.236
17.812,8.188
17.816,8.02
17.82,8.08
17.824,8.268
17.828,8.244
17.832,8.072
17.836,8.056
17.84,8.24
17.844,8.236
17.848,8.08
17.852,8.052
17.856,8.244
17.86,8.292
17.864,8.136
17.868,8.044
17.872,8.196
17.876,8.276
17.88,8.128
17.884,8.008
17.888,8.176
17.892,8.3
17.896,8.184
17.9,8.028
17.904,8.132
17.908,8.256
17.912,8.188
17.916,8.04
17.92,8.08
17.924,8.244
17.928,8.24
17.932,8.068
17.936,8.072
17.94,8.244
17.944,8.248
17.948,8.064
17.952,8
17.956,8.192
17.96,8.256
17.964,8.092
17.968,8.012
17.972,8.172
17.976,8.268
17.98,8.116
17.984,7.956
17.988,8.104
17.992,8.256
17.996,8.148
18,7.948
18.004,8.076
18.008,8.252
18.012,8.196
18.016,7.944
18.02,8.012
18.024,8.212
18.028,8.296
18.032,7.996
18.036,8.016
18.04,8.276
18.044,8.344
18.048,8.084
18.052,8.032
18.056,8.28
18.06,8.344
18.064,8.156
18.068,8.052
18.072,8.228
18.076,8.272
18.08,8.14
18.084,7.96
18.088,8.128
18.092,8.308
18.096,8.172
18.1,7.956
18.104,8.06
18.108,8.244
18.112,8.22
18.116,7.948
18.12,8.016
18.124,8.152
18.128,8.204
18.132,7.92
18.136,7.94
18.14,8.176
18.144,8.236
18.148,7.968
18.152,7.92
18.156,8.104
18.16,8.216
18.164,8.012
18.168,7.876
18.172,8.02
18.176,8.16
18.18,8.06
18.184,8.096
18.188,8.408
18.192,8.96
18.196,9.22
18.2,8.916
18.204,8.612
18.208,8.472
18.212,8.096
18.216,7.664
18.22,7.624
18.224,7.752
18.228,7.804
18.232,7.72
18.236,7.812
18.24,8.108
18.244,8.196
18.248,7.98
18.252,7.916
18.256,8.132
18.26,8.212
18.264,8.012
18.268,7.932
18.272,8.144
18.276,8.244
18.28,8.068
18.284,7.924
18.288,8.08
18.292,8.208
18.296,8.12
18.3,7.956
18.304,8.076
18.308,8.232
18.312,8.136
18.316,7.984
18.32,8.028
18.324,8.212
18.328,8.216
18.332,8.004
18.336,8.024
18.34,8.232
18.344,8.248
18.348,8.06
18.352,7.988
18.356,8.236
18.36,8.28
18.364,8.116
18.368,8.056
18.372,8.252
18.376,8.356
18.38,8.188
18.384,8.104
18.388,8.284
18.392,8.444
18.396,8.324
18.4,8.22
18.404,8.352
18.408,8.544
18.412,8.508
18.416,8.384
18.42,8.436
18.424,8.652
18.428,8.668
18.432,8.508
18.436,8.508
18.44,8.756
18.444,8.76
18.448,8.584
18.452,8.472
18.456,8.652
18.46,8.708
18.464,8.468
18.468,8.324
18.472,8.468
18.476,8.5
18.48,8.28
18.484,8.132
18.488,8.256
18.492,8.368
18.496,8.196
18.5,8.012
18.504,8.128
18.508,8.252
18.512,8.18
18.516,7.992
18.52,8.052
18.524,8.204
18.528,8.168
18.532,7.996
18.536,7.972
18.54,8.2
18.544,8.228
18.548,8.044
18.552,7.944
18.556,8.132
18.56,8.224
18.564,8.008
18.568,7.908
18.572,8.14
18.576,8.22
18.58,8.096
18.584,7.94
18.588,8.08
18.592,8.228
18.596,8.116
18.6,7.956
18.604,8.08
18.608,8.216
18.612,8.188
18.616,8.004
18.62,8.016
18.624,8.216
18.628,8.224
18.632,8
18.636,8.004
18.64,8.236
18.644,8.256
18.648,8.076
18.652,7.972
18.656,8.16
18.66,8.232
18.664,8.052
18.668,7.964
18.672,8.164
18.676,8.272
18.68,8.092
18.684,7.968
18.688,8.104
18.692,8.244
18.696,8.132
18.7,7.932
18.704,8.064
18.708,8.228
18.712,8.18
18.716,7.984
18.72,8.028
18.724,8.212
18.728,8.2
18.732,8
18.736,7.976
18.74,8.192
18.744,8.188
18.748,8.028
18.752,7.944
18.756,8.148
18.76,8.224
18.764,8.048
18.768,7.92
18.772,8.12
18.776,8.208
18.78,8.056
18.784,7.94
18.788,8.072
18.792,8.208
18.796,8.076
18.8,7.932
18.804,8.02
18.808,8.228
18.812,8.172
18.816,7.996
18.82,8.06
18.824,8.264
18.828,8.268
18.832,8.06
18.836,8.044
18.84,8.26
18.844,8.324
18.848,8.132
18.852,8.004
18.856,8.188
18.86,8.256
18.864,8.064
18.868,7.96
18.872,8.132
18.876,8.26
18.88,8.076
18.884,7.94
18.888,8.076
18.892,8.2
18.896,8.06
18.9,7.904
18.904,8.004
18.908,8.164
18.912,8.092
18.916,7.932
18.92,7.956
18.924,8.18
18.928,8.156
18.932,7.96
18.936,7.92
18.94,8.144
18.944,8.188
18.948,7.924
18.952,7.828
18.956,8.064
18.96,8.32
18.964,8.256
18.968,8.372
18.972,8.988
18.976,9.368
18.98,8.904
18.984,8.424
18.988,8.224
18.992,8.048
18.996,7.756
19,7.496
19.004,7.632
19.008,7.92
19.012,7.992
19.016,7.856
19.02,7.956
19.024,8.168
19.028,8.152
19.032,7.94
19.036,7.948
19.04,8.16
19.044,8.204
19.048,8.02
19.052,7.944
19.056,8.144
19.06,8.216
19.064,8.052
19.068,7.936
19.072,8.128
19.076,8.244
19.08,8.06
19.084,7.952
19.088,8.092
19.092,8.228
19.096,8.104
19.1,7.948
19.104,8.048
19.108,8.248
19.112,8.188
19.116,8.004
19.12,8.044
19.124,8.236
19.128,8.236
19.132,8.024
19.136,8.024
19.14,8.24
19.144,8.3
19.148,8.116
19.152,8.08
19.156,8.268
19.16,8.376
19.164,8.208
19.168,8.116
19.172,8.3
19.176,8.464
19.18,8.316
19.184,8.24
19.188,8.396
19.192,8.568
19.196,8.48
19.2,8.348
19.204,8.496
19.208,8.672
19.212,8.656
19.216,8.508
19.22,8.552
19.224,8.748
19.228,8.724
19.232,8.496
19.236,8.472
19.24,8.652
19.244,8.68
19.248,8.428
19.252,8.312
19.256,8.444
19.26,8.476
19.264,8.236
19.268,8.12
19.272,8.24
19.276,8.36
19.28,8.16
19.284,8.044
19.288,8.12
19.292,8.264
19.296,8.172
19.3,8.008
19.304,8.064
19.308,8.24
19.312,8.168
19.316,8.044
19.32,8.024
19.324,8.236
19.328,8.236
19.332,8.028
19.336,7.992
19.34,8.176
19.344,8.26
19.348,8.06
19.352,7.972
19.356,8.148
19.36,8.264
19.364,8.06
19.368,7.984
19.372,8.132
19.376,8.248
19.38,8.104
19.384,7.996
19.388,8.096
19.392,8.236
19.396,8.148
19.4,7.976
19.404,8.072
19.408,8.24
19.412,8.188
19.416,8.044
19.42,8.064
19.424,8.224
19.428,8.18
19.432,8.008
19.436,7.98
19.44,8.128
19.444,8.188
19.448,8.064
19.452,7.944
19.456,8.12
19.46,8.2
19.464,8.032
19.468,7.96
19.472,8.108
19.476,8.224
19.48,8.12
19.484,7.988
19.488,8.152
19.492,8.228
19.496,8.124
19.5,7.976
19.504,8.096
19.508,8.264
19.512,8.16
19.516,7.976
19.52,8.008
19.524,8.236
19.528,8.192
19.532,8.012
19.536,7.972
19.54,8.216
19.544,8.196
19.548,8.028
19.552,7.972
19.556,8.188
19.56,8.256
19.564,8.012
19.568,7.912
19.572,8.128
19.576,8.252
19.58,8.048
19.584,7.92
19.588,8.088
19.592,8.3
19.596,8.112
19.6,7.932
19.604,8.028
19.608,8.264
19.612,8.208
19.616,8.032
19.62,8.008
19.624,8.296
19.628,8.276
19.632,8.012
19.636,8.02
19.64,8.232
19.644,8.276
19.648,7.988
19.652,7.928
19.656,8.14
19.66,8.316
19.664,7.996
19.668,7.856
19.672,8.088
19.676,8.256
19.68,8.028
19.684,7.84
19.688,8.008
19.692,8.2
19.696,8.016
19.7,7.82
19.704,7.96
19.708,8.168
19.712,8.12
19.716,7.876
19.72,7.936
19.724,8.176
19.728,8.2
19.732,7.924
19.736,7.864
19.74,8.048
19.744,8.188
19.748,8.032
19.752,8.14
19.756,8.54
19.76,9.052
19.764,9.196
19.768,8.856
19.772,8.672
19.776,8.46
19.78,7.872
19.784,7.548
19.788,7.596
19.792,7.812
19.796,7.836
19.8,7.736
19.804,7.936
19.808,8.184
19.812,8.108
19.816,7.868
19.82,7.956
19.824,8.184
19.828,8.212
19.832,7.992
19.836,7.904
19.84,8.172
19.844,8.176
19.848,8.024
19.852,7.924
19.856,8.152
19.86,8.212
19.864,8.052
19.868,7.888
19.872,8.096
19.876,8.22
19.88,8.036
19.884,7.924
19.888,8.116
19.892,8.232
19.896,8.12
19.9,7.936
19.904,8.072
19.908,8.228
19.912,8.16
19.916,7.948
19.92,7.96
19.924,8.288
19.928,8.24
19.932,8.06
19.936,7.996
19.94,8.172
19.944,8.248
19.948,8.072
19.952,8.048
19.956,8.284
19.96,8.424
19.964,8.308
19.968,8.088
19.972,8.36
19.976,8.484
19.98,8.392
19.984,8.228
19.988,8.412
19.992,8.612
19.996,8.584
20,8.396
20.004,8.492
20.008,8.704
20.012,8.684
20.016,8.476
20.02,8.42
20.024,8.696
20.028,8.7
20.032,8.408
20.036,8.312
20.04,8.488
20.044,8.424
20.048,8.196
20.052,8.064
20.056,8.304
20.06,8.312
20.064,8.12
20.068,7.936
20.072,8.176
20.076,8.304
20.08,8.14
20.084,7.944
20.088,8.08
20.092,8.208
20.096,7.988
20.1,7.868
20.104,7.88
20.108,8.024
20.112,8.096
20.116,7.936
20.12,7.852
20.124,8.132
20.128,8.092
20.132,7.932
20.136,7.92
20.14,8.168
20.144,8.224
20.148,8.064
20.152,7.94
20.156,8.092
20.16,8.196
20.164,8.024
20.168,7.908
20.172,8.088
20.176,8.184
20.18,7.992
20.184,7.888
20.188,8.064
20.192,8.24
20.196,8.128
20.2,7.932
20.204,7.972
20.208,8.144
20.212,8.116
20.216,8.036
20.22,7.932
20.224,8.128
20.228,8.14
20.232,7.968
20.236,7.936
20.24,8.112
20.244,8.188
20.248,7.916
20.252,7.828
20.256,8.1
20.26,8.216
20.264,7.992
20.268,7.828
20.272,8.076
20.276,8.148
20.28,8.02
20.284,7.816
20.288,8.02
20.292,8.168
20.296,8.068
20.3,7.916
20.304,7.972
20.308,8.152
20.312,8.108
20.316,7.908
20.32,7.912
20.324,8.132
20.328,8.176
20.332,7.948
20.336,7.88
20.34,8.128
20.344,8.136
20.348,7.956
20.352,7.84
20.356,8.096
20.36,8.248
20.364,8.028
20.368,7.88
20.372,8.096
20.376,8.272
20.38,8.12
20.384,7.88
20.388,8.056
20.392,8.272
20.396,8.152
20.4,7.968
20.404,8.032
20.408,8.204
20.412,8.096
20.416,7.956
20.42,7.88
20.424,8.092
20.428,8.16
20.432,7.952
20.436,7.84
20.44,8.076
20.444,8.18
20.448,7.96
20.452,7.792
20.456,8.012
20.46,8.18
20.464,7.988
20.468,7.74
20.472,7.94
20.476,8.096
20.48,7.924
20.484,7.812
20.488,7.948
20.492,8.156
20.496,7.98
20.5,7.812
20.504,7.8
20.508,8.124
20.512,8.204
20.516,8.108
20.52,8.22
20.524,8.916
20.528,9.316
20.532,8.804
20.536,8.316
20.54,8.216
20.544,7.912
20.548,7.576
20.552,7.356
20.556,7.604
20.56,7.884
20.564,7.752
20.568,7.668
20.572,7.98
20.576,8.152
20.58,8.016
20.584,7.88
20.588,7.9
20.592,8.14
20.596,8.056
20.6,7.848
20.604,7.944
20.608,8.136
20.612,8.1
20.616,7.872
20.62,7.836
20.624,8.024
20.628,8.164
20.632,7.932
20.636,7.816
20.64,8.076
20.644,8.16
20.648,7.972
20.652,7.828
20.656,8.068
20.66,8.212
20.664,8.068
20.668,7.872
20.672,8.044
20.676,8.172
20.68,8.012
20.684,7.868
20.688,8
20.692,8.188
20.696,8.116
20.7,7.968
20.704,7.996
20.708,8.244
20.712,8.196
20.716,8.108
20.72,8.092
20.724,8.324
20.728,8.408
20.732,8.196
20.736,8.076
20.74,8.292
20.744,8.408
20.748,8.224
20.752,8.192
20.756,8.484
20.76,8.644
20.764,8.468
20.768,8.304
20.772,8.488
20.776,8.64
20.78,8.512
20.784,8.436
20.788,8.48
20.792,8.596
20.796,8.46
20.8,8.172
20.804,8.2
20.808,8.436
20.812,8.364
20.816,8.084
20.82,7.924
20.824,8.16
20.828,8.268
20.832,8.048
20.836,7.892
20.84,8.084
20.844,8.176
20.848,7.924
20.852,7.8
20.856,8.04
20.86,8.192
20.864,8.024
20.868,7.852
20.872,8.016
20.876,8.132
20.88,8
20.884,7.888
20.888,7.876
20.892,8.108
20.896,8.108
20.9,7.924
20.904,7.904
20.908,8.16
20.912,8.164
20.916,7.928
20.92,7.804
20.924,8.056
20.928,8.132
20.932,7.968
20.936,7.844
20.94,8.064
20.944,8.136
20.948,7.92
20.952,7.904
20.956,8.012
20.96,8.16
20.964,8.036
20.968,7.904
20.972,8.072
20.976,8.176
20.98,8.024
20.984,7.916
20.988,8.004
20.992,8.208
20.996,8.08
21,7.86
21.004,7.836
21.008,8.056
21.012,8.096
21.016,7.976
21.02,7.876
21.024,8.048
21.028,8.144
21.032,7.952
21.036,7.836
21.04,8.036
21.044,8.172
21.048,7.992
21.052,7.784
21.056,8.016
21.06,8.136
21.064,7.944
21.068,7.848
21.072,8.064
21.076,8.2
21.08,8.02
21.084,7.82
21.088,7.936
21.092,8.112
21.096,8.064
21.1,7.876
21.104,7.872
21.108,8.064
21.112,8.088
21.116,7.916
21.12,7.868
21.124,8.124
21.128,8.24
21.132,8.06
21.136,7.876
21.14,8.176
21.144,8.272
21.148,8.084
21.152,7.956
21.156,8.116
21.16,8.268
21.164,8.048
21.168,7.892
21.172,8.052
21.176,8.196
21.18,8.064
21.184,7.888
21.188,7.916
21.192,8.22
21.196,8.092
21.2,7.816
21.204,7.8
21.208,8.02
21.212,8.072
21.216,7.88
21.22,7.784
21.224,8.06
21.228,8.116
21.232,7.892
21.236,7.812
21.24,8.056
21.244,8.176
21.248,7.932
21.252,7.696
21.256,7.984
21.26,8.168
21.264,8.172
21.268,8.132
21.272,8.62
21.276,9.16
21.28,9.024
21.284,8.304
21.288,8.112
21.292,7.896
21.296,7.652
21.3,7.468
21.304,7.464
21.308,7.8
21.312,7.952
21.316,7.844
21.32,7.812
21.324,8.048
21.328,8.092
21.332,7.884
21.336,7.804
21.34,8.12
21.344,8.252
21.348,7.992
21.352,7.844
21.356,8.012
21.36,8.148
21.364,7.98
21.368,7.88
21.372,8
21.376,8.232
21.38,8.06
21.384,7.876
21.388,7.92
21.392,8.104
21.396,8.088
21.4,7.96
21.404,7.916
21.408,8.16
21.412,8.18
21.416,7.98
21.42,7.876
21.424,8.112
21.428,8.204
21.432,7.976
21.436,7.836
21.44,8.136
21.444,8.28
21.448,8.108
21.452,7.948
21.456,8.14
21.46,8.336
21.464,8.168
21.468,7.968
21.472,8.16
21.476,8.404
21.48,8.336
21.484,8.156
21.488,8.228
21.492,8.488
21.496,8.44
21.5,8.284
21.504,8.296
21.508,8.5
21.512,8.592
21.516,8.416
21.52,8.36
21.524,8.6
21.528,8.632
21.532,8.464
21.536,8.3
21.54,8.52
21.544,8.536
21.548,8.356
21.552,8.196
21.556,8.324
21.56,8.388
21.564,8.192
21.568,8.004
21.572,8.072
21.576,8.276
21.58,8.176
21.584,7.936
21.588,7.944
21.592,8.124
21.596,8.14
21.6,7.988
21.604,7.984
21.608,8.18
21.612,8.128
21.616,8
21.62,7.916
21.624,8.128
21.628,8.204
21.632,7.964
21.636,7.86
21.64,8.164
21.644,8.264
21.648,8.016
21.652,7.832
21.656,8.04
21.66,8.276
21.664,8.06
21.668,7.776
21.672,7.956
21.676,8.176
21.68,8.044
21.684,7.916
21.688,8.008
21.692,8.256
21.696,8.148
21.7,7.904
21.704,7.872
21.708,8.116
21.712,8.128
21.716,7.972
21.72,7.884
21.724,8.164
21.728,8.188
21.732,7.988
21.736,7.816
21.74,8.044
21.744,8.236
21.748,8.068
21.752,7.92
21.756,8.064
21.76,8.184
21.764,7.964
21.768,7.784
21.772,7.92
21.776,8.128
21.78,8.092
21.784,7.928
21.788,7.872
21.792,8.076
21.796,8.068
21.8,7.812
21.804,7.864
21.808,8.108
21.812,8.112
21.816,7.84
21.82,7.768
21.824,8.032
21.828,8.092
21.832,7.932
21.836,7.884
21.84,8.028
21.844,8.052
21.848,7.944
21.852,7.8
21.856,7.996
21.86,8.188
21.864,8.048
21.868,7.852
21.872,7.936
21.876,8.228
21.88,8.096
21.884,7.868
21.888,7.9
21.892,8.124
21.896,8.036
21.9,7.848
21.904,7.82
21.908,8.072
21.912,8.036
21.916,7.768
21.92,7.748
21.924,8
21.928,8.116
21.932,7.832
21.936,7.608
21.94,7.904
21.944,8.1
21.948,7.836
21.952,7.664
21.956,7.932
21.96,8.1
21.964,7.848
21.968,7.696
21.972,7.832
21.976,8.008
21.98,7.896
21.984,7.692
21.988,7.716
21.992,8.028
21.996,8.08
22,8.032
22.004,8.26
22.008,8.884
22.012,9.048
22.016,8.38
22.02,7.96
22.024,7.872
22.028,7.716
22.032,7.412
22.036,7.236
22.04,7.5
22.044,7.74
22.048,7.66
22.052,7.584
22.056,7.872
22.06,8.084
22.064,7.864
22.068,7.696
22.072,7.776
22.076,7.964
22.08,7.852
22.084,7.68
22.088,7.72
22.092,7.996
22.096,8.052
22.1,7.8
22.104,7.776
22.108,8.024
22.112,8.052
22.116,7.772
22.12,7.704
22.124,8
22.128,8.092
22.132,7.828
22.136,7.684
22.14,7.988
22.144,8.148
22.148,7.904
22.152,7.736
22.156,7.96
22.16,8.1
22.164,7.964
22.168,7.808
22.172,7.944
22.176,8.164
22.18,8.072
22.184,7.86
22.188,7.928
22.192,8.18
22.196,8.228
22.2,7.984
22.204,7.964
22.208,8.276
22.212,8.288
22.216,8.16
22.22,8.06
22.224,8.356
22.228,8.456
22.232,8.284
22.236,8.192
22.24,8.464
22.244,8.584
22.248,8.4
22.252,8.232
22.256,8.436
22.26,8.588
22.264,8.476
22.268,8.292
22.272,8.324
22.276,8.44
22.28,8.296
22.284,8.076
22.288,8.088
22.292,8.244
22.296,8.26
22.3,7.992
22.304,7.884
22.308,8.124
22.312,8.124
22.316,7.88
22.32,7.82
22.324,8.116
22.328,8.156
22.332,7.876
22.336,7.776
22.34,8.028
22.344,8.124
22.348,7.88
22.352,7.724
22.356,7.924
22.36,8.076
22.364,7.924
22.368,7.748
22.372,7.912
22.376,8.132
22.38,7.992
22.384,7.812
22.388,7.844
22.392,8.108
22.396,8.032
22.4,7.84
22.404,7.792
22.408,8.072
22.412,8.116
22.416,7.852
22.42,7.816
22.424,8.084
22.428,8.14
22.432,7.92
22.436,7.796
22.44,8.016
22.444,8.164
22.448,7.924
22.452,7.756
22.456,7.984
22.46,8.168
22.464,8.008
22.468,7.8
22.472,7.912
22.476,8.1
22.48,8.044
22.484,7.864
22.488,7.876
22.492,8.08
22.496,8.044
22.5,7.86
22.504,7.8
22.508,8.036
22.512,8.1
22.516,7.876
22.52,7.784
22.524,8.036
22.528,8.124
22.532,7.892
22.536,7.728
22.54,7.972
22.544,8.136
22.548,7.936
22.552,7.756
22.556,7.912
22.56,8.136
22.564,7.96
22.568,7.728
22.572,7.86
22.576,8.14
22.58,8.044
22.584,7.848
22.588,7.88
22.592,8.192
22.596,8.2
22.6,8.004
22.604,7.964
22.608,8.204
22.612,8.292
22.616,8.024
22.62,7.936
22.624,8.256
22.628,8.276
22.632,7.976
22.636,7.78
22.64,8
22.644,8.1
22.648,7.916
22.652,7.736
22.656,7.896
22.66,8.124
22.664,7.94
22.668,7.712
22.672,7.832
22.676,8.032
22.68,7.956
22.684,7.768
22.688,7.772
22.692,8.04
22.696,7.992
22.7,7.72
22.704,7.604
22.708,7.948
22.712,8.148
22.716,8.076
22.72,8.18
22.724,8.904
22.728,9.312
22.732,8.84
22.736,8.2
22.74,8.064
22.744,7.908
22.748,7.532
22.752,7.316
22.756,7.512
22.76,7.792
22.764,7.756
22.768,7.68
22.772,7.852
22.776,8.052
22.78,7.972
22.784,7.78
22.788,7.788
22.792,8.056
22.796,8.036
22.8,7.808
22.804,7.764
22.808,8.048
22.812,8.12
22.816,7.836
22.82,7.792
22.824,8.048
22.828,8.164
22.832,7.928
22.836,7.804
22.84,8.024
22.844,8.172
22.848,7.952
22.852,7.78
22.856,7.98
22.86,8.2
22.864,8.044
22.868,7.816
22.872,7.876
22.876,8.164
22.88,8.064
22.884,7.848
22.888,7.924
22.892,8.196
22.896,8.208
22.9,7.988
22.904,7.908
22.908,8.24
22.912,8.3
22.916,8.072
22.92,8.004
22.924,8.248
22.928,8.38
22.932,8.208
22.936,8.108
22.94,8.332
22.944,8.54
22.948,8.352
22.952,8.216
22.956,8.412
22.96,8.664
22.964,8.508
22.968,8.356
22.972,8.472
22.976,8.7
22.98,8.608
22.984,8.344
22.988,8.316
22.992,8.56
22.996,8.52
23,8.208
23.004,8.1
23.008,8.328
23.012,8.36
23.016,8.08
23.02,7.944
23.024,8.168
23.028,8.288
23.032,8.048
23.036,7.864
23.04,8.076
23.044,8.196
23.048,7.996
23.052,7.816
23.056,7.972
23.06,8.188
23.064,8.024
23.068,7.836
23.072,7.912
23.076,8.144
23.08,8.044
23.084,7.86
23.088,7.86
23.092,8.12
23.096,8.136
23.1,7.876
23.104,7.84
23.108,8.076
23.112,8.18
23.116,7.908
23.12,7.812
23.124,8.052
23.128,8.244
23.132,7.96
23.136,7.82
23.14,8.04
23.144,8.208
23.148,7.968
23.152,7.804
23.156,7.984
23.16,8.204
23.164,8.064
23.168,7.872
23.172,7.94
23.176,8.176
23.18,8.132
23.184,7.916
23.188,7.892
23.192,8.176
23.196,8.172
23.2,7.9
23.204,7.84
23.208,8.104
23.212,8.152
23.216,7.944
23.22,7.804
23.224,8.064
23.228,8.204
23.232,7.948
23.236,7.816
23.24,8.028
23.244,8.196
23.248,7.972
23.252,7.792
23.256,7.984
23.26,8.168
23.264,8.02
23.268,7.82
23.272,7.916
23.276,8.116
23.28,8.08
23.284,7.848
23.288,7.872
23.292,8.104
23.296,8.156
23.3,7.896
23.304,7.82
23.308,8.08
23.312,8.16
23.316,7.912
23.32,7.812
23.324,8.076
23.328,8.204
23.332,7.932
23.336,7.812
23.34,8
23.344,8.176
23.348,7.972
23.352,7.78
23.356,7.912
23.36,8.176
23.364,8.06
23.368,7.856
23.372,7.956
23.376,8.212
23.38,8.188
23.384,7.94
23.388,7.932
23.392,8.196
23.396,8.252
23.4,7.98
23.404,7.88
23.408,8.108
23.412,8.212
23.416,7.94
23.42,7.812
23.424,8.076
23.428,8.2
23.432,7.94
23.436,7.792
23.44,8.012
23.444,8.2
23.448,7.948
23.452,7.768
23.456,7.896
23.46,8.12
23.464,7.984
23.468,7.812
23.472,7.888
23.476,8.104
23.48,8.06
23.484,7.836
23.488,7.804
23.492,8.068
23.496,8.048
23.5,7.796
23.504,7.8
23.508,8.224
23.512,8.468
23.516,8.456
23.52,8.756
23.524,9.2
23.528,8.988
23.532,8.356
23.536,7.844
23.54,7.76
23.544,7.816
23.548,7.524
23.552,7.388
23.556,7.656
23.56,7.984
23.564,7.928
23.568,7.788
23.572,7.864
23.576,8.116
23.58,8.088
23.584,7.828
23.588,7.828
23.592,8.132
23.596,8.156
23.6,7.904
23.604,7.816
23.608,8.084
23.612,8.188
23.616,7.888
23.62,7.792
23.624,8.04
23.628,8.212
23.632,7.948
23.636,7.8
23.64,8.012
23.644,8.208
23.648,8
23.652,7.828
23.656,7.996
23.66,8.184
23.664,8.052
23.668,7.856
23.672,7.916
23.676,8.18
23.68,8.168
23.684,7.932
23.688,7.9
23.692,8.204
23.696,8.236
23.7,7.964
23.704,7.892
23.708,8.204
23.712,8.324
23.716,8.076
23.72,8.012
23.724,8.268
23.728,8.456
23.732,8.236
23.736,8.108
23.74,8.348
23.744,8.584
23.748,8.42
23.752,8.24
23.756,8.368
23.76,8.64
23.764,8.54
23.768,8.328
23.772,8.372
23.776,8.624
23.78,8.58
23.784,8.304
23.788,8.252
23.792,8.492
23.796,8.496
23.8,8.184
23.804,8.056
23.808,8.272
23.812,8.352
23.816,8.056
23.82,7.924
23.824,8.088
23.828,8.228
23.832,7.972
23.836,7.804
23.84,8
23.844,8.204
23.848,8.008
23.852,7.772
23.856,7.884
23.86,8.1
23.864,8.02
23.868,7.8
23.872,7.844
23.876,8.076
23.88,8.1
23.884,7.852
23.888,7.808
23.892,8.088
23.896,8.14
23.9,7.864
23.904,7.772
23.908,8.012
23.912,8.16
23.916,7.924
23.92,7.78
23.924,8.016
23.928,8.168
23.932,7.916
23.936,7.748
23.94,7.944
23.944,8.176
23.948,7.98
23.952,7.792
23.956,7.904
23.96,8.148
23.964,8.028
23.968,7.808
23.972,7.832
23.976,8.132
23.98,8.088
23.984,7.832
23.988,7.8
23.992,8.064
23.996,8.136
24,7.856
24.004,7.748
24.008,8.028
24.012,8.132
24.016,7.9
24.02,7.768
24.024,7.96
24.028,8.132
24.032,7.904
24.036,7.708
24.04,7.88
24.044,8.132
24.048,7.964
24.052,7.704
24.056,7.8
24.06,8.056
24.064,7.984
24.068,7.78
24.072,7.796
24.076,8.064
24.08,8.04
24.084,7.808
24.088,7.788
24.092,8.016
24.096,8.052
24.1,7.788
24.104,7.704
24.108,7.968
24.112,8.108
24.116,7.88
24.12,7.708
24.124,7.924
24.128,8.092
24.132,7.848
24.136,7.672
24.14,7.896
24.144,8.1
24.148,8.004
24.152,7.792
24.156,7.892
24.16,8.156
24.164,8.08
24.168,7.812
24.172,7.892
24.176,8.132
24.18,8.12
24.184,7.816
24.188,7.8
24.192,8.028
24.196,8.076
24.2,7.9
24.204,7.756
24.208,7.984
24.212,8.104
24.216,7.848
24.22,7.676
24.224,7.88
24.228,8.064
24.232,7.82
24.236,7.66
24.24,7.836
24.244,8.04
24.248,7.852
24.252,7.628
24.256,7.748
24.26,8.016
24.264,7.94
24.268,7.704
24.272,7.704
24.276,7.852
24.28,7.896
24.284,7.772
24.288,7.92
24.292,8.3
24.296,8.752
24.3,8.86
24.304,8.84
24.308,8.576
24.312,8.392
24.316,7.796
24.32,7.412
24.324,7.5
24.328,7.588
24.332,7.476
24.336,7.404
24.34,7.652
24.344,7.944
24.348,7.904
24.352,7.68
24.356,7.776
24.36,8.012
24.364,7.936
24.368,7.704
24.372,7.78
24.376,8.044
24.38,8.032
24.384,7.776
24.388,7.72
24.392,7.988
24.396,8.112
24.4,7.832
24.404,7.732
24.408,7.98
24.412,8.124
24.416,7.868
24.42,7.748
24.424,7.944
24.428,8.12
24.432,7.944
24.436,7.772
24.44,7.888
24.444,8.116
24.448,7.996
24.452,7.804
24.456,7.908
24.46,8.132
24.464,8.072
24.468,7.876
24.472,7.876
24.476,8.148
24.48,8.2
24.484,7.98
24.488,7.912
24.492,8.172
24.496,8.328
24.5,8.096
24.504,8.048
24.508,8.292
24.512,8.424
24.516,8.228
24.52,8.14
24.524,8.372
24.528,8.584
24.532,8.396
24.536,8.248
24.54,8.432
24.544,8.66
24.548,8.508
24.552,8.304
24.556,8.372
24.56,8.592
24.564,8.508
24.568,8.216
24.572,8.164
24.576,8.396
24.58,8.356
24.584,8.06
24.588,7.984
24.592,8.168
24.596,8.216
24.6,7.952
24.604,7.824
24.608,8.036
24.612,8.168
24.616,7.968
24.62,7.744
24.624,7.936
24.628,8.104
24.632,7.928
24.636,7.756
24.64,7.896
24.644,8.12
24.648,7.964
24.652,7.772
24.656,7.86
24.66,8.072
24.664,8
24.668,7.784
24.672,7.78
24.676,8.012
24.68,8.076
24.684,7.86
24.688,7.804
24.692,8.004
24.696,8.12
24.7,7.88
24.704,7.748
24.708,7.964
24.712,8.132
24.716,7.932
24.72,7.764
24.724,8.004
24.728,8.164
24.732,7.992
24.736,7.764
24.74,7.932
24.744,8.152
24.748,8.056
24.752,7.796
24.756,7.904
24.76,8.12
24.764,8.12
24.768,7.872
24.772,7.82
24.776,8.024
24.78,8.088
24.784,7.876
24.788,7.828
24.792,8.052
24.796,8.168
24.8,7.912
24.804,7.772
24.808,7.972
24.812,8.124
24.816,7.932
24.82,7.764
24.824,7.96
24.828,8.128
24.832,7.972
24.836,7.808
24.84,7.932
24.844,8.108
24.848,8.02
24.852,7.804
24.856,7.868
24.86,8.1
24.864,8.08
24.868,7.812
24.872,7.82
24.876,8.068
24.88,8.076
24.884,7.868
24.888,7.792
24.892,8.04
24.896,8.164
24.9,7.956
24.904,7.868
24.908,8.076
24.912,8.22
24.916,8.044
24.92,7.848
24.924,8.072
24.928,8.196
24.932,8.056
24.936,7.84
24.94,7.916
24.944,8.148
24.948,8.048
24.952,7.868
24.956,7.98
24.96,8.124
24.964,8.06
24.968,7.812
24.972,7.816
24.976,8.076
24.98,8.16
24.984,7.844
24.988,7.78
24.992,7.98
24.996,8.064
25,7.844
25.004,7.728
25.008,7.988
25.012,8.128
25.016,7.936
25.02,7.796
25.024,7.952
25.028,8.076
25.032,7.864
25.036,7.736
25.04,7.992
25.044,8.348
25.048,8.44
25.052,8.72
25.056,9.18
25.06,9.208
25.064,8.7
25.068,8.12
25.072,7.704
25.076,7.736
25.08,7.7
25.084,7.42
25.088,7.472
25.092,7.852
25.096,8.044
25.1,7.888
25.104,7.776
25.108,7.936
25.112,8.104
25.116,7.936
25.12,7.804
25.124,7.972
25.128,8.16
25.132,7.984
25.136,7.784
25.14,7.924
25.144,8.088
25.148,8.04
25.152,7.828
25.156,7.904
25.16,8.104
25.164,8.072
25.168,7.86
25.172,7.86
25.176,8.024
25.18,8.168
25.184,7.92
25.188,7.872
25.192,8.096
25.196,8.228
25.2,8.02
25.204,7.856
25.208,8.056
25.212,8.236
25.216,8.036
25.22,7.892
25.224,8.136
25.228,8.28
25.232,8.12
25.236,7.936
25.24,8.072
25.244,8.252
25.248,8.216
25.252,8.036
25.256,8.164
25.26,8.38
25.264,8.428
25.268,8.22
25.272,8.216
25.276,8.488
25.28,8.604
25.284,8.44
25.288,8.356
25.292,8.58
25.296,8.728
25.3,8.56
25.304,8.384
25.308,8.608
25.312,8.732
25.316,8.496
25.32,8.328
25.324,8.452
25.328,8.544
25.332,8.388
25.336,8.088
25.34,8.156
25.344,8.292
25.348,8.196
25.352,7.948
25.356,7.984
25.36,8.168
25.364,8.14
25.368,7.904
25.372,7.892
25.376,8.06
25.38,8.144
25.384,7.94
25.388,7.828
25.392,8.032
25.396,8.152
25.4,7.968
25.404,7.824
25.408,8.004
25.412,8.148
25.416,7.948
25.42,7.824
25.424,7.972
25.428,8.152
25.432,8.016
25.436,7.824
25.44,7.928
25.444,8.116
25.448,8.056
25.452,7.876
25.456,7.912
25.46,8.112
25.464,8.132
25.468,7.9
25.472,7.84
25.476,8.072
25.48,8.156
25.484,7.932
25.488,7.88
25.492,8.096
25.496,8.172
25.5,7.952
25.504,7.812
25.508,8.02
25.512,8.18
25.516,8.048
25.52,7.888
25.524,8.024
25.528,8.16
25.532,8.016
25.536,7.832
25.54,7.972
25.544,8.148
25.548,8.072
25.552,7.836
25.556,7.9
25.56,8.14
25.564,8.124
25.568,7.892
25.572,7.876
25.576,8.052
25.58,8.12
25.584,7.936
25.588,7.856
25.592,8.048
25.596,8.196
25.6,7.992
25.604,7.82
25.608,8.008
25.612,8.136
25.616,7.972
25.62,7.836
25.624,7.992
25.628,8.148
25.632,8.016
25.636,7.84
25.64,7.956
25.644,8.124
25.648,8.052
25.652,7.812
25.656,7.892
25.66,8.104
25.664,8.132
25.668,7.892
25.672,7.856
25.676,8.072
25.68,8.12
25.684,7.924
25.688,7.908
25.692,8.112
25.696,8.208
25.7,8.044
25.704,7.928
25.708,8.076
25.712,8.228
25.716,8.036
25.72,7.832
25.724,7.992
25.728,8.188
25.732,8.064
25.736,7.9
25.74,8.016
25.744,8.172
25.748,8.08
25.752,7.848
25.756,7.908
25.76,8.064
25.764,8.052
25.768,7.88
25.772,7.872
25.776,8.06
25.78,8.148
25.784,7.928
25.788,7.804
25.792,7.996
25.796,8.172
25.8,7.976
25.804,7.804
25.808,7.996
25.812,8.104
25.816,7.904
25.82,7.808
25.824,8.144
25.828,8.48
25.832,8.612
25.836,8.82
25.84,9.28
25.844,9.172
25.848,8.66
25.852,8.032
25.856,7.648
25.86,7.712
25.864,7.668
25.868,7.464
25.872,7.62
25.876,7.936
25.88,8.072
25.884,7.896
25.888,7.82
25.892,8.024
25.896,8.136
25.9,7.936
25.904,7.812
25.908,8.012
25.912,8.156
25.916,8.008
25.92,7.844
25.924,7.988
25.928,8.152
25.932,8.064
25.936,7.852
25.94,7.98
25.944,8.144
25.948,8.088
25.952,7.88
25.956,7.924
25.96,8.132
25.964,8.168
25.968,7.932
25.972,7.908
25.976,8.124
25.98,8.188
25.984,7.992
25.988,7.92
25.992,8.12
25.996,8.276
26,8.04
26.004,7.948
26.008,8.152
26.012,8.272
26.016,8.124
26.02,7.968
26.024,8.14
26.028,8.364
26.032,8.268
26.036,8.128
26.04,8.232
26.044,8.44
26.048,8.404
26.052,8.236
26.056,8.296
26.06,8.56
26.064,8.592
26.068,8.408
26.072,8.4
26.076,8.612
26.08,8.7
26.084,8.536
26.088,8.44
26.092,8.636
26.096,8.748
26.1,8.524
26.104,8.316
26.108,8.44
26.112,8.56
26.116,8.368
26.12,8.144
26.124,8.208
26.128,8.364
26.132,8.236
26.136,7.996
26.14,8.032
26.144,8.212
26.148,8.132
26.152,7.912
26.156,7.964
26.16,8.168
26.164,8.172
26.168,7.912
26.172,7.892
26.176,8.104
26.18,8.188
26.184,7.964
26.188,7.876
26.192,8.08
26.196,8.208
26.2,8.004
26.204,7.84
26.208,8.032
26.212,8.156
26.216,8
26.22,7.832
26.224,8.02
26.228,8.168
26.232,8.064
26.236,7.92
26.24,8.02
26.244,8.164
26.248,8.092
26.252,7.872
26.256,7.888
26.26,8.112
26.264,8.148
26.268,7.932
26.272,7.896
26.276,8.108
26.28,8.216
26.284,7.984
26.288,7.896
26.292,8.068
26.296,8.216
26.3,8.012
26.304,7.884
26.308,8.056
26.312,8.228
26.316,8.072
26.32,7.88
26.324,8.016
26.328,8.184
26.332,8.072
26.336,7.9
26.34,7.984
26.344,8.184
26.348,8.128
26.352,7.912
26.356,7.944
26.36,8.136
26.364,8.16
26.368,7.924
26.372,7.92
26.376,8.124
26.38,8.212
26.384,7.98
26.388,7.864
26.392,8.092
26.396,8.212
26.4,8.036
26.404,7.868
26.408,8.06
26.412,8.216
26.416,8.036
26.42,7.828
26.424,8.04
26.428,8.172
26.432,8.096
26.436,7.872
26.44,7.996
26.444,8.172
26.448,8.072
26.452,7.876
26.456,7.904
26.46,8.064
26.464,8.088
26.468,7.936
26.472,7.9
26.476,8.112
26.48,8.24
26.484,7.976
26.488,7.908
26.492,8.148
26.496,8.248
26.5,8.084
26.504,7.96
26.508,8.176
26.512,8.28
26.516,8.092
26.52,7.808
26.524,7.984
26.528,8.212
26.532,8.068
26.536,7.884
26.54,7.984
26.544,8.08
26.548,8.08
26.552,7.916
26.556,7.936
26.56,8.136
26.564,8.16
26.568,7.888
26.572,7.768
26.576,7.984
26.58,8.148
26.584,7.908
26.588,7.752
26.592,7.952
26.596,8.132
26.6,7.984
26.604,7.764
26.608,7.98
26.612,8.132
26.616,7.916
26.62,7.784
26.624,7.972
26.628,8.304
26.632,8.336
26.636,8.504
26.64,9.1
26.644,9.324
26.648,8.768
26.652,8.212
26.656,7.784
26.66,7.768
26.664,7.676
26.668,7.416
26.672,7.452
26.676,7.812
26.68,7.944
26.684,7.848
26.688,7.824
26.692,8.012
26.696,8.132
26.7,7.936
26.704,7.756
26.708,7.952
26.712,8.16
26.716,8.052
26.72,7.912
26.724,7.984
26.728,8.124
26.732,8.044
26.736,7.864
26.74,7.984
26.744,8.128
26.748,8.104
26.752,7.864
26.756,7.948
26.76,8.172
26.764,8.208
26.768,7.988
26.772,7.968
26.776,8.12
26.78,8.164
26.784,8.032
26.788,7.884
26.792,8.12
26.796,8.248
26.8,8.04
26.804,7.92
26.808,8.136
26.812,8.284
26.816,8.144
26.82,8.024
26.824,8.204
26.828,8.316
26.832,8.24
26.836,8.104
26.84,8.188
26.844,8.456
26.848,8.452
26.852,8.24
26.856,8.26
26.86,8.484
26.864,8.62
26.868,8.464
26.872,8.4
26.876,8.644
26.88,8.78
26.884,8.572
26.888,8.46
26.892,8.672
26.896,8.784
26.9,8.544
26.904,8.356
26.908,8.5
26.912,8.624
26.916,8.412
26.92,8.188
26.924,8.304
26.928,8.428
26.932,8.272
26.936,8.06
26.94,8.096
26.944,8.268
26.948,8.196
26.952,8.004
26.956,8.016
26.96,8.168
26.964,8.228
26.968,7.976
26.972,7.94
26.976,8.12
26.98,8.252
26.984,8.04
26.988,7.896
26.992,8.112
26.996,8.24
27,8.02
27.004,7.892
27.008,8.092
27.012,8.244
27.016,8.092
27.02,7.896
27.024,8.016
27.028,8.196
27.032,8.112
27.036,7.94
27.04,8.028
27.044,8.2
27.048,8.184
27.052,7.98
27.056,7.96
27.06,8.152
27.064,8.228
27.068,8.004
27.072,7.944
27.076,8.16
27.08,8.252
27.084,8.06
27.088,7.896
27.092,8.148
27.096,8.248
27.1,8.06
27.104,7.9
27.108,8.112
27.112,8.28
27.116,8.12
27.12,7.904
27.124,8.06
27.128,8.228
27.132,8.132
27.136,7.952
27.14,7.988
27.144,8.232
27.148,8.2
27.152,7.996
27.156,7.984
27.16,8.204
27.164,8.24
27.168,8.024
27.172,7.916
27.176,8.192
27.18,8.268
27.184,8.072
27.188,7.928
27.192,8.16
27.196,8.256
27.2,8.064
27.204,7.904
27.208,8.1
27.212,8.224
27.216,8.116
27.22,7.932
27.224,8.068
27.228,8.224
27.232,8.136
27.236,7.948
27.24,8.016
27.244,8.236
27.248,8.196
27.252,7.94
27.256,7.944
27.26,8.22
27.264,8.244
27.268,8.004
27.272,7.904
27.276,8.16
27.28,8.26
27.284,8.084
27.288,7.924
27.292,8.232
27.296,8.352
27.3,8.144
27.304,7.976
27.308,8.204
27.312,8.364
27.316,8.212
27.32,7.996
27.324,8.116
27.328,8.284
27.332,8.18
27.336,7.968
27.34,8.02
27.344,8.232
27.348,8.192
27.352,7.992
27.356,7.944
27.36,8.184
27.364,8.188
27.368,7.952
27.372,7.84
27.376,8.14
27.38,8.22
27.384,8.016
27.388,7.852
27.392,8.112
27.396,8.22
27.4,8.068
27.404,7.876
27.408,8.064
27.412,8.212
27.416,8.024
27.42,7.812
27.424,8.048
27.428,8.376
27.432,8.432
27.436,8.508
27.44,8.972
27.444,9.432
27.448,9.024
27.452,8.396
27.456,7.98
27.46,7.916
27.464,7.828
27.468,7.544
27.472,7.476
27.476,7.884
27.48,8.068
27.484,7.932
27.488,7.828
27.492,8.12
27.496,8.212
27.5,8.044
27.504,7.864
27.508,8.096
27.512,8.224
27.516,8.084
27.52,7.904
27.524,8.072
27.528,8.24
27.532,8.14
27.536,7.948
27.54,8.004
27.544,8.244
27.548,8.184
27.552,8.02
27.556,7.968
27.56,8.24
27.564,8.276
27.568,8.044
27.572,7.912
27.576,8.2
27.58,8.28
27.584,8.08
27.588,7.94
27.592,8.192
27.596,8.324
27.6,8.164
27.604,7.956
27.608,8.164
27.612,8.364
27.616,8.196
27.62,8.068
27.624,8.2
27.628,8.404
27.632,8.34
27.636,8.176
27.64,8.212
27.644,8.472
27.648,8.472
27.652,8.3
27.656,8.304
27.66,8.6
27.664,8.652
27.668,8.476
27.672,8.392
27.676,8.692
27.68,8.788
27.684,8.608
27.688,8.48
27.692,8.752
27.696,8.832
27.7,8.636
27.704,8.464
27.708,8.596
27.712,8.7
27.716,8.512
27.72,8.268
27.724,8.372
27.728,8.508
27.732,8.376
27.736,8.14
27.74,8.124
27.744,8.352
27.748,8.296
27.752,8.068
27.756,8.016
27.76,8.284
27.764,8.308
27.768,8.072
27.772,7.928
27.776,8.228
27.78,8.26
27.784,8.064
27.788,7.916
27.792,8.208
27.796,8.312
27.8,8.116
27.804,7.956
27.808,8.128
27.812,8.316
27.816,8.148
27.82,7.956
27.824,8.084
27.828,8.264
27.832,8.18
27.836,8.008
27.84,8
27.844,8.244
27.848,8.216
27.852,8.016
27.856,7.984
27.86,8.268
27.864,8.304
27.868,8.088
27.872,8.004
27.876,8.22
27.88,8.324
27.884,8.112
27.888,7.96
27.892,8.2
27.896,8.344
27.9,8.164
27.904,7.964
27.908,8.136
27.912,8.34
27.916,8.172
27.92,7.984
27.924,8.096
27.928,8.304
27.932,8.208
27.936,7.996
27.94,8.02
27.944,8.288
27.948,8.256
27.952,8.024
27.956,7.976
27.96,8.26
27.964,8.3
27.968,8.056
27.972,7.944
27.976,8.196
27.98,8.296
27.984,8.06
27.988,7.932
27.992,8.172
27.996,8.316
28,8.108
28.004,7.948
28.008,8.104
28.012,8.296
28.016,8.144
28.02,7.932
28.024,8.068
28.028,8.296
28.032,8.2
28.036,7.98
28.04,7.996
28.044,8.236
28.048,8.224
28.052,8.016
28.056,7.924
28.06,8.236
28.064,8.268
28.068,8.032
28.072,7.932
28.076,8.188
28.08,8.3
28.084,8.092
28.088,7.936
28.092,8.216
28.096,8.352
28.1,8.164
28.104,8.004
28.108,8.212
28.112,8.392
28.116,8.228
28.12,8.028
28.124,8.156
28.128,8.372
28.132,8.236
28.136,8.012
28.14,8.024
28.144,8.3
28.148,8.252
28.152,8.068
28.156,7.984
28.16,8.248
28.164,8.292
28.168,8.088
28.172,7.944
28.176,8.192
28.18,8.252
28.184,8.008
28.188,7.864
28.192,8.096
28.196,8.232
28.2,8.064
28.204,7.908
28.208,8.076
28.212,8.244
28.216,8.116
28.22,7.928
28.224,8.016
28.228,8.18
28.232,8.104
28.236,7.988
28.24,8.156
28.244,8.54
28.248,8.848
28.252,9.008
28.256,9.028
28.26,8.824
28.264,8.532
28.268,7.956
28.272,7.608
28.276,7.788
28.28,7.804
28.284,7.664
28.288,7.636
28.292,7.992
28.296,8.208
28.3,8.052
28.304,7.892
28.308,8.064
28.312,8.252
28.316,8.108
28.32,7.92
28.324,8.02
28.328,8.28
28.332,8.188
28.336,7.956
28.34,7.988
28.344,8.232
28.348,8.208
28.352,7.996
28.356,7.916
28.36,8.216
28.364,8.268
28.368,8.076
28.372,7.968
28.376,8.212
28.38,8.296
28.384,8.084
28.388,7.916
28.392,8.164
28.396,8.324
28.4,8.152
28.404,7.96
28.408,8.156
28.412,8.348
28.416,8.22
28.42,8.008
28.424,8.112
28.428,8.372
28.432,8.332
28.436,8.144
28.44,8.144
28.444,8.436
28.448,8.432
28.452,8.224
28.456,8.204
28.46,8.528
28.464,8.584
28.468,8.388
28.472,8.296
28.476,8.568
28.48,8.688
28.484,8.54
28.488,8.412
28.492,8.66
28.496,8.812
28.5,8.624
28.504,8.496
28.508,8.632
28.512,8.852
28.516,8.656
28.52,8.376
28.524,8.412
28.528,8.624
28.532,8.472
28.536,8.236
28.54,8.192
28.544,8.408
28.548,8.34
28.552,8.12
28.556,8.016
28.56,8.284
28.564,8.304
28.568,8.056
28.572,7.94
28.576,8.172
28.58,8.3
28.584,8.08
28.588,7.908
28.592,8.152
28.596,8.284
28.6,8.104
28.604,7.928
28.608,8.08
28.612,8.264
28.616,8.124
28.62,7.928
28.624,8.008
28.628,8.28
28.632,8.152
28.636,7.972
28.64,7.96
28.644,8.232
28.648,8.244
28.652,8.036
28.656,7.916
28.66,8.22
28.664,8.276
28.668,8.04
28.672,7.928
28.676,8.2
28.68,8.292
28.684,8.084
28.688,7.916
28.692,8.14
28.696,8.3
28.7,8.1
28.704,7.948
28.708,8.1
28.712,8.288
28.716,8.144
28.72,7.956
28.724,8.032
28.728,8.268
28.732,8.188
28.736,7.984
28.74,7.948
28.744,8.236
28.748,8.212
28.752,8.012
28.756,7.916
28.76,8.2
28.764,8.244
28.768,8.032
28.772,7.9
28.776,8.136
28.78,8.248
28.784,8.06
28.788,7.908
28.792,8.108
28.796,8.264
28.8,8.064
28.804,7.884
28.808,8.04
28.812,8.284
28.816,8.124
28.82,7.908
28.824,7.976
28.828,8.228
28.832,8.128
28.836,7.96
28.84,7.952
28.844,8.216
28.848,8.228
28.852,7.98
28.856,7.912
28.86,8.188
28.864,8.224
28.868,8
28.872,7.888
28.876,8.104
28.88,8.292
28.884,8.048
28.888,7.9
28.892,8.128
28.896,8.364
28.9,8.184
28.904,7.98
28.908,8.12
28.912,8.356
28.916,8.216
28.92,8.024
28.924,8.072
28.928,8.308
28.932,8.212
28.936,8.004
28.94,7.98
28.944,8.264
28.948,8.236
28.952,8
28.956,7.916
28.96,8.168
28.964,8.264
28.968,8.004
28.972,7.856
28.976,8.1
28.98,8.244
28.984,7.972
28.988,7.864
28.992,8.06
28.996,8.244
29,8.024
29.004,7.88
29.008,8.008
29.012,8.24
29.016,8.084
29.02,7.844
29.024,7.868
29.028,8.116
29.032,8.16
29.036,8.088
29.04,8.256
29.044,8.892
29.048,9.308
29.052,9.12
29.056,8.568
29.06,8.472
29.064,8.224
29.068,7.744
29.072,7.516
29.076,7.676
29.08,7.88
29.084,7.752
29.088,7.724
29.092,7.996
29.096,8.244
29.1,8.032
29.104,7.872
29.108,8.016
29.112,8.24
29.116,8.096
29.12,7.92
29.124,7.992
29.128,8.248
29.132,8.152
29.136,7.944
29.14,7.948
29.144,8.224
29.148,8.256
29.152,8.008
29.156,7.94
29.16,8.184
29.164,8.308
29.168,8.036
29.172,7.948
29.176,8.168
29.18,8.348
29.184,8.092
29.188,7.964
29.192,8.12
29.196,8.36
29.2,8.14
29.204,7.964
29.208,8.116
29.212,8.364
29.216,8.216
29.22,8.032
29.224,8.104
29.228,8.372
29.232,8.332
29.236,8.136
29.24,8.148
29.244,8.436
29.248,8.504
29.252,8.264
29.256,8.228
29.26,8.496
29.264,8.64
29.268,8.412
29.272,8.344
29.276,8.632
29.28,8.816
29.284,8.548
29.288,8.412
29.292,8.636
29.296,8.856
29.3,8.644
29.304,8.46
29.308,8.588
29.312,8.796
29.316,8.62
29.32,8.352
29.324,8.364
29.328,8.576
29.332,8.464
29.336,8.18
29.34,8.144
29.344,8.408
29.348,8.4
29.352,8.092
29.356,7.996
29.36,8.248
29.364,8.348
29.368,8.084
29.372,7.96
29.376,8.192
29.38,8.324
29.384,8.092
29.388,7.94
29.392,8.12
29.396,8.328
29.4,8.14
29.404,7.944
29.408,8.06
29.412,8.312
29.416,8.172
29.42,7.976
29.424,8.04
29.428,8.288
29.432,8.248
29.436,7.992
29.44,7.988
29.444,8.248
29.448,8.312
29.452,8.048
29.456,7.976
29.46,8.232
29.464,8.364
29.468,8.088
29.472,7.968
29.476,8.188
29.48,8.376
29.484,8.116
29.488,7.98
29.492,8.176
29.496,8.36
29.5,8.168
29.504,7.976
29.508,8.116
29.512,8.348
29.516,8.228
29.52,7.992
29.524,8.04
29.528,8.3
29.532,8.272
29.536,8.012
29.54,8.024
29.544,8.244
29.548,8.34
29.552,8.044
29.556,7.992
29.56,8.24
29.564,8.372
29.568,8.088
29.572,7.936
29.576,8.172
29.58,8.368
29.584,8.108
29.588,7.96
29.592,8.132
29.596,8.336
29.6,8.152
29.604,7.936
29.608,8.084
29.612,8.332
29.616,8.204
29.62,7.964
29.624,8.04
29.628,8.284
29.632,8.252
29.636,8.004
29.64,7.976
29.644,8.26
29.648,8.328
29.652,8.052
29.656,7.988
29.66,8.224
29.664,8.372
29.668,8.04
29.672,7.952
29.676,8.168
29.68,8.352
29.684,8.108
29.688,7.972
29.692,8.136
29.696,8.36
29.7,8.196
29.704,8.028
29.708,8.16
29.712,8.388
29.716,8.308
29.72,8.072
29.724,8.148
29.728,8.38
29.732,8.332
29.736,8.028
29.74,8.028
29.744,8.268
29.748,8.356
29.752,8.04
29.756,7.976
29.76,8.208
29.764,8.356
29.768,8.088
29.772,7.924
29.776,8.152
29.78,8.316
29.784,8.072
29.788,7.916
29.792,8.092
29.796,8.272
29.8,8.096
29.804,7.912
29.808,8.032
29.812,8.256
29.816,8.172
29.82,7.944
29.824,8
29.828,8.212
29.832,8.192
29.836,7.956
29.84,8.068
29.844,8.44
29.848,8.74
29.852,8.884
29.856,9.092
29.86,9.004
29.864,8.74
29.868,8.156
29.872,7.692
29.876,7.752
29.88,7.892
29.884,7.704
29.888,7.676
29.892,7.944
29.896,8.228
29.9,8.12
29.904,7.944
29.908,8.056
29.912,8.284
29.916,8.228
29.92,7.96
29.924,8.036
29.928,8.272
29.932,8.284
29.936,8.004
29.94,7.992
29.944,8.252
29.948,8.34
29.952,8.056
29.956,7.956
29.96,8.204
29.964,8.344
29.968,8.08
29.972,7.94
29.976,8.176
29.98,8.376
29.984,8.148
29.988,7.972
29.992,8.176
29.996,8.376
30,8.228
30.004,8.008
30.008,8.124
30.012,8.388
30.016,8.332
30.02,8.056
30.024,8.088
30.028,8.364
30.032,8.416
30.036,8.112
30.04,8.128
30.044,8.404
30.048,8.536
30.052,8.264
30.056,8.208
30.06,8.472
30.064,8.628
30.068,8.412
30.072,8.272
30.076,8.54
30.08,8.752
30.084,8.572
30.088,8.412
30.092,8.616
30.096,8.84
30.1,8.728
30.104,8.48
30.108,8.604
30.112,8.844
30.116,8.78
30.12,8.44
30.124,8.46
30.128,8.672
30.132,8.648
30.136,8.292
30.14,8.228
30.144,8.42
30.148,8.488
30.152,8.16
30.156,8.04
30.16,8.28
30.164,8.408
30.168,8.14
30.172,7.988
30.176,8.176
30.18,8.36
30.184,8.18
30.188,7.944
30.192,8.132
30.196,8.344
30.2,8.18
30.204,7.952
30.208,8.068
30.212,8.328
30.216,8.272
30.22,7.98
30.224,8.048
30.228,8.296
30.232,8.284
30.236,8.02
30.24,8
30.244,8.244
30.248,8.348
30.252,8.036
30.256,7.96
30.26,8.196
30.264,8.328
30.268,8.124
30.272,7.944
30.276,8.14
30.28,8.348
30.284,8.188
30.288,7.972
30.292,8.148
30.296,8.34
30.3,8.252
30.304,7.976
30.308,8.116
30.312,8.332
30.316,8.284
30.32,7.984
30.324,8.052
30.328,8.308
30.332,8.336
30.336,8.028
30.34,7.992
30.344,8.244
30.348,8.34
30.352,8.068
30.356,7.952
30.36,8.216
30.364,8.36
30.368,8.108
30.372,7.936
30.376,8.168
30.38,8.336
30.384,8.172
30.388,7.944
30.392,8.136
30.396,8.352
30.4,8.224
30.404,7.94
30.408,8.088
30.412,8.3
30.416,8.292
30.42,7.984
30.424,8.028
30.428,8.272
30.432,8.3
30.436,8.032
30.44,7.968
30.444,8.224
30.448,8.34
30.452,8.06
30.456,7.956
30.46,8.188
30.464,8.36
30.468,8.116
30.472,7.936
30.476,8.156
30.48,8.36
30.484,8.152
30.488,7.928
30.492,8.112
30.496,8.392
30.5,8.332
30.504,8.024
30.508,8.172
30.512,8.384
30.516,8.372
30.52,8.04
30.524,8.112
30.528,8.348
30.532,8.38
30.536,8.076
30.54,8.02
30.544,8.256
30.548,8.344
30.552,8.092
30.556,7.936
30.56,8.208
30.564,8.364
30.568,8.124
30.572,7.912
30.576,8.108
30.58,8.292
30.584,8.168
30.588,7.9
30.592,8.084
30.596,8.284
30.6,8.216
30.604,7.892
30.608,8.048
30.612,8.264
30.616,8.252
30.62,7.936
30.624,7.956
30.628,8.184
30.632,8.208
30.636,7.964
30.64,8.016
30.644,8.404
30.648,8.796
30.652,8.948
30.656,9
30.66,8.812
30.664,8.688
30.668,8.148
30.672,7.628
30.676,7.724
30.68,7.896
30.684,7.8
30.688,7.612
30.692,7.896
30.696,8.232
30.7,8.212
30.704,7.892
30.708,8.02
30.712,8.232
30.716,8.24
30.72,7.94
30.724,7.972
30.728,8.268
30.732,8.32
30.736,8.012
30.74,7.948
30.744,8.196
30.748,8.328
30.752,8.108
30.756,7.944
30.76,8.176
30.764,8.352
30.768,8.168
30.772,7.924
30.776,8.12
30.78,8.332
30.784,8.232
30.788,7.944
30.792,8.124
30.796,8.36
30.8,8.28
30.804,7.96
30.808,8.088
30.812,8.364
30.816,8.352
30.82,8.072
30.824,8.088
30.828,8.348
30.832,8.408
30.836,8.16
30.84,8.088
30.844,8.36
30.848,8.492
30.852,8.32
30.856,8.156
30.86,8.452
30.864,8.648
30.868,8.512
30.872,8.3
30.876,8.528
30.88,8.756
30.884,8.672
30.888,8.356
30.892,8.584
30.896,8.828
30.9,8.764
30.904,8.48
30.908,8.588
30.912,8.8
30.916,8.74
30.92,8.432
30.924,8.396
30.928,8.612
30.932,8.628
30.936,8.332
30.94,8.168
30.944,8.376
30.948,8.476
30.952,8.224
30.956,8.024
30.96,8.236
30.964,8.392
30.968,8.188
30.972,7.904
30.976,8.12
30.98,8.328
30.984,8.2
30.988,7.928
30.992,8.076
30.996,8.344
31,8.244
31.004,7.988
31.008,8.076
31.012,8.328
31.016,8.284
31.02,7.988
31.024,7.964
31.028,8.224
31.032,8.3
31.036,8.056
31.04,7.968
31.044,8.228
31.048,8.328
31.052,8.112
31.056,7.92
31.06,8.176
31.064,8.356
31.068,8.164
31.072,7.892
31.076,8.12
31.08,8.32
31.084,8.188
31.088,7.936
31.092,8.08
31.096,8.328
31.1,8.232
31.104,7.94
31.108,8.068
31.112,8.3
31.116,8.264
31.12,8.008
31.124,7.992
31.128,8.228
31.132,8.308
31.136,8.044
31.14,7.94
31.144,8.192
31.148,8.32
31.152,8.092
31.156,7.9
31.16,8.144
31.164,8.316
31.168,8.164
31.172,7.916
31.176,8.108
31.18,8.308
31.184,8.18
31.188,7.924
31.192,8.052
31.196,8.304
31.2,8.204
31.204,7.988
31.208,8.04
31.212,8.272
31.216,8.264
31.22,8.012
31.224,7.964
31.228,8.22
31.232,8.28
31.236,8.064
31.24,7.94
31.244,8.176
31.248,8.292
31.252,8.092
31.256,7.88
31.26,8.1
31.264,8.276
31.268,8.128
31.272,7.908
31.276,8.112
31.28,8.32
31.284,8.204
31.288,7.924
31.292,8.104
31.296,8.38
31.3,8.296
31.304,8.032
31.308,8.084
31.312,8.352
31.316,8.352
31.32,8.092
31.324,8.016
31.328,8.232
31.332,8.3
31.336,8.108
31.34,7.948
31.344,8.228
31.348,8.328
31.352,8.128
31.356,7.908
31.36,8.14
31.364,8.3
31.368,8.124
31.372,7.836
31.376,8.068
31.38,8.272
31.384,8.124
31.388,7.86
31.392,7.996
31.396,8.232
31.4,8.164
31.404,7.94
31.408,7.972
31.412,8.232
31.416,8.188
31.42,7.936
31.424,7.844
31.428,8.152
31.432,8.328
31.436,8.264
31.44,8.344
31.444,9.016
31.448,9.432
31.452,9.016
31.456,8.38
31.46,8.3
31.464,8.188
31.468,7.824
31.472,7.516
31.476,7.656
31.48,7.952
31.484,7.96
31.488,7.784
31.492,7.992
31.496,8.256
31.5,8.172
31.504,7.944
31.508,7.984
31.512,8.268
31.516,8.236
31.52,7.98
31.524,7.956
31.528,8.224
31.532,8.284
31.536,8.088
31.54,7.948
31.544,8.188
31.548,8.308
31.552,8.128
31.556,7.912
31.56,8.152
31.564,8.328
31.568,8.196
31.572,7.94
31.576,8.124
31.58,8.352
31.584,8.2
31.588,7.968
31.592,8.108
31.596,8.36
31.6,8.252
31.604,8.052
31.608,8.104
31.612,8.368
31.616,8.368
31.62,8.132
31.624,8.08
31.628,8.352
31.632,8.468
31.636,8.264
31.64,8.148
31.644,8.396
31.648,8.576
31.652,8.4
31.656,8.232
31.66,8.492
31.664,8.704
31.668,8.56
31.672,8.34
31.676,8.56
31.68,8.804
31.684,8.704
31.688,8.484
31.692,8.612
31.696,8.86
31.7,8.756
31.704,8.52
31.708,8.52
31.712,8.728
31.716,8.696
31.72,8.408
31.724,8.312
31.728,8.504
31.732,8.544
31.736,8.26
31.74,8.096
31.744,8.296
31.748,8.444
31.752,8.216
31.756,7.972
31.76,8.176
31.764,8.396
31.768,8.208
31.772,7.96
31.776,8.148
31.78,8.356
31.784,8.216
31.788,7.976
31.792,8.092
31.796,8.336
31.8,8.268
31.804,8.004
31.808,8.04
31.812,8.292
31.816,8.316
31.82,8.06
31.824,7.992
31.828,8.244
31.832,8.352
31.836,8.12
31.84,7.976
31.844,8.22
31.848,8.376
31.852,8.168
31.856,7.968
31.86,8.192
31.864,8.364
31.868,8.192
31.872,7.968
31.876,8.168
31.88,8.388
31.884,8.264
31.888,8
31.892,8.136
31.896,8.368
31.9,8.288
31.904,8.048
31.908,8.096
31.912,8.348
31.916,8.34
31.92,8.072
31.924,8.024
31.928,8.26
31.932,8.352
31.936,8.12
31.94,7.996
31.944,8.232
31.948,8.404
31.952,8.188
31.956,7.976
31.96,8.208
31.964,8.404
31.968,8.2
31.972,7.98
31.976,8.176
31.98,8.376
31.984,8.244
31.988,8
31.992,8.12
31.996,8.348
32,8.268
32.004,8.008
32.008,8.06
32.012,8.316
32.016,8.36
32.02,8.076
32.024,8.024
32.028,8.272
32.032,8.36
32.036,8.128
32.04,7.972
32.044,8.22
32.048,8.388
32.052,8.168
32.056,7.972
32.06,8.184
32.064,8.376
32.068,8.2
32.072,7.988
32.076,8.172
32.08,8.384
32.084,8.236
32.088,8.02
32.092,8.128
32.096,8.352
32.1,8.284
32.104,8.024
32.108,8.068
32.112,8.336
32.116,8.348
32.12,8.12
32.124,8.1
32.128,8.352
32.132,8.436
32.136,8.228
32.14,8.076
32.144,8.324
32.148,8.488
32.152,8.288
32.156,8.06
32.16,8.224
32.164,8.428
32.168,8.26
32.172,8.012
32.176,8.2
32.18,8.38
32.184,8.26
32.188,8.012
32.192,8.14
32.196,8.36
32.2,8.256
32.204,8.012
32.208,8.032
32.212,8.268
32.216,8.264
32.22,8.056
32.224,7.976
32.228,8.232
32.232,8.316
32.236,8.112
32.24,7.96
32.244,8.188
32.248,8.368
32.252,8.132
32.256,7.868
32.26,8.164
32.264,8.484
32.268,8.428
32.272,8.444
32.276,9.032
32.28,9.464
32.284,8.96
32.288,8.432
32.292,8.192
32.296,8.12
32.3,7.9
32.304,7.62
32.308,7.684
32.312,8.068
32.316,8.176
32.32,8
32.324,8.004
32.328,8.22
32.332,8.344
32.336,8.1
32.34,7.96
32.344,8.192
32.348,8.368
32.352,8.184
32.356,7.964
32.36,8.192
32.364,8.372
32.368,8.228
32.372,8
32.376,8.164
32.38,8.396
32.384,8.268
32.388,8.024
32.392,8.14
32.396,8.368
32.4,8.296
32.404,8.056
32.408,8.088
32.412,8.324
32.416,8.384
32.42,8.136
32.424,8.076
32.428,8.316
32.432,8.408
32.436,8.196
32.44,8.052
32.444,8.284
32.448,8.484
32.452,8.316
32.456,8.08
32.46,8.332
32.464,8.54
32.468,8.404
32.472,8.148
32.476,8.38
32.48,8.624
32.484,8.512
32.488,8.312
32.492,8.46
32.496,8.688
32.5,8.684
32.504,8.48
32.508,8.54
32.512,8.784
32.516,8.864
32.52,8.64
32.524,8.58
32.528,8.82
32.532,8.936
32.536,8.672
32.54,8.488
32.544,8.672
32.548,8.804
32.552,8.588
32.556,8.316
32.56,8.492
32.564,8.644
32.568,8.428
32.572,8.176
32.576,8.3
32.58,8.488
32.584,8.34
32.588,8.092
32.592,8.172
32.596,8.4
32.6,8.344
32.604,8.124
32.608,8.112
32.612,8.332
32.616,8.376
32.62,8.168
32.624,8.052
32.628,8.296
32.632,8.404
32.636,8.192
32.64,7.996
32.644,8.24
32.648,8.4
32.652,8.248
32.656,8.016
32.66,8.22
32.664,8.424
32.668,8.268
32.672,8.028
32.676,8.18
32.68,8.404
32.684,8.304
32.688,8.076
32.692,8.132
32.696,8.384
32.7,8.312
32.704,8.132
32.708,8.084
32.712,8.316
32.716,8.404
32.72,8.2
32.724,8.052
32.728,8.296
32.732,8.448
32.736,8.244
32.74,8.032
32.744,8.236
32.748,8.428
32.752,8.272
32.756,8.02
32.76,8.204
32.764,8.448
32.768,8.296
32.772,8.056
32.776,8.152
32.78,8.38
32.784,8.304
32.788,8.1
32.792,8.112
32.796,8.356
32.8,8.32
32.804,8.14
32.808,8.044
32.812,8.308
32.816,8.396
32.82,8.212
32.824,8.028
32.828,8.256
32.832,8.432
32.836,8.244
32.84,7.996
32.844,8.196
32.848,8.432
32.852,8.268
32.856,8.044
32.86,8.192
32.864,8.432
32.868,8.288
32.872,8.072
32.876,8.096
32.88,8.388
32.884,8.316
32.888,8.132
32.892,8.064
32.896,8.344
32.9,8.368
32.904,8.176
32.908,8.012
32.912,8.304
32.916,8.384
32.92,8.248
32.924,8.012
32.928,8.24
32.932,8.432
32.936,8.308
32.94,8.032
32.944,8.212
32.948,8.448
32.952,8.34
32.956,8.144
32.96,8.244
32.964,8.476
32.968,8.396
32.972,8.188
32.976,8.192
32.98,8.464
32.984,8.384
32.988,8.188
32.992,8.112
32.996,8.38
33,8.388
33.004,8.244
33.008,8.024
33.012,8.248
33.016,8.404
33.02,8.28
33.024,8.008
33.028,8.192
33.032,8.368
33.036,8.256
33.04,7.988
33.044,8.12
33.048,8.38
33.052,8.276
33.056,8.036
33.06,8.068
33.064,8.344
33.068,8.284
33.072,8.08
33.076,8.02
33.08,8.288
33.084,8.2
33.088,8.108
33.092,8.1
33.096,8.496
33.1,8.72
33.104,8.988
33.108,9.072
33.112,8.976
33.116,8.772
33.12,8.376
33.124,7.808
33.128,7.832
33.132,7.96
33.136,7.868
33.14,7.756
33.144,7.98
33.148,8.3
33.152,8.256
33.156,8.036
33.16,8.096
33.164,8.368
33.168,8.276
33.172,8.116
33.176,8.04
33.18,8.336
33.184,8.292
33.188,8.176
33.192,8.024
33.196,8.296
33.2,8.336
33.204,8.212
33.208,8.028
33.212,8.252
33.216,8.388
33.22,8.252
33.224,8.06
33.228,8.212
33.232,8.42
33.236,8.324
33.24,8.06
33.244,8.172
33.248,8.396
33.252,8.316
33.256,8.128
33.26,8.156
33.264,8.46
33.268,8.348
33.272,8.184
33.276,8.14
33.28,8.444
33.284,8.392
33.288,8.292
33.292,8.176
33.296,8.436
33.3,8.524
33.304,8.424
33.308,8.26
33.312,8.504
33.316,8.648
33.32,8.576
33.324,8.412
33.328,8.564
33.332,8.8
33.336,8.716
33.34,8.528
33.344,8.652
33.348,8.92
33.352,8.816
33.356,8.644
33.36,8.656
33.364,8.924
33.368,8.804
33.372,8.6
33.376,8.496
33.38,8.72
33.384,8.644
33.388,8.468
33.392,8.316
33.396,8.52
33.4,8.536
33.404,8.376
33.408,8.148
33.412,8.32
33.416,8.44
33.42,8.32
33.424,8.08
33.428,8.252
33.432,8.464
33.436,8.288
33.44,8.088
33.444,8.156
33.448,8.4
33.452,8.272
33.456,8.12
33.46,8.124
33.464,8.392
33.468,8.308
33.472,8.18
33.476,8.076
33.48,8.356
33.484,8.316
33.488,8.188
33.492,8.052
33.496,8.312
33.5,8.356
33.504,8.248
33.508,8.068
33.512,8.288
33.516,8.384
33.52,8.256
33.524,8.064
33.528,8.208
33.532,8.436
33.536,8.276
33.54,8.112
33.544,8.18
33.548,8.444
33.552,8.264
33.556,8.16
33.56,8.164
33.564,8.42
33.568,8.3
33.572,8.2
33.576,8.096
33.58,8.364
33.584,8.328
33.588,8.2
33.592,8.072
33.596,8.344
33.6,8.364
33.604,8.232
33.608,8.056
33.612,8.264
33.616,8.392
33.62,8.244
33.624,8.064
33.628,8.224
33.632,8.424
33.636,8.256
33.64,8.1
33.644,8.2
33.648,8.424
33.652,8.248
33.656,8.116
33.66,8.16
33.664,8.4
33.668,8.284
33.672,8.112
33.676,8.144
33.68,8.332
33.684,8.292
33.688,8.144
33.692,8.064
33.696,8.304
33.7,8.372
33.704,8.172
33.708,8.068
33.712,8.288
33.716,8.376
33.72,8.192
33.724,8.04
33.728,8.244
33.732,8.392
33.736,8.204
33.74,8.052
33.744,8.2
33.748,8.396
33.752,8.236
33.756,8.072
33.76,8.192
33.764,8.404
33.768,8.264
33.772,8.076
33.776,8.112
33.78,8.344
33.784,8.28
33.788,8.108
33.792,8.08
33.796,8.292
33.8,8.34
33.804,8.16
33.808,8.068
33.812,8.292
33.816,8.456
33.82,8.26
33.824,8.112
33.828,8.312
33.832,8.492
33.836,8.284
33.84,8.136
33.844,8.312
33.848,8.476
33.852,8.26
33.856,8.104
33.86,8.196
33.864,8.428
33.868,8.292
33.872,8.124
33.876,8.104
33.88,8.328
33.884,8.292
33.888,8.112
33.892,8.032
33.896,8.28
33.9,8.288
33.904,8.104
33.908,8.016
33.912,8.22
33.916,8.332
33.92,8.124
33.924,7.98
33.928,8.204
33.932,8.396
33.936,8.192
33.94,8.028
33.944,8.148
33.948,8.32
33.952,8.188
33.956,8.164
33.96,8.352
33.964,8.812
33.968,9.116
33.972,9.136
33.976,8.784
33.98,8.712
33.984,8.368
33.988,7.888
33.992,7.692
33.996,7.888
34,7.944
34.004,7.876
34.008,7.844
34.012,8.18
34.016,8.36
34.02,8.148
34.024,8.024
34.028,8.22
34.032,8.412
34.036,8.228
34.04,8.084
34.044,8.22
34.048,8.436
34.052,8.256
34.056,8.096
34.06,8.184
34.064,8.384
34.068,8.304
34.072,8.12
34.076,8.148
34.08,8.384
34.084,8.34
34.088,8.144
34.092,8.124
34.096,8.34
34.1,8.408
34.104,8.192
34.108,8.096
34.112,8.344
34.116,8.476
34.12,8.256
34.124,8.108
34.128,8.308
34.132,8.504
34.136,8.308
34.14,8.18
34.144,8.332
34.148,8.548
34.152,8.4
34.156,8.256
34.16,8.344
34.164,8.568
34.168,8.48
34.172,8.352
34.176,8.424
34.18,8.648
34.184,8.644
34.188,8.484
34.192,8.488
34.196,8.736
34.2,8.804
34.204,8.648
34.208,8.58
34.212,8.792
34.216,8.936
34.22,8.716
34.224,8.576
34.228,8.748
34.232,8.932
34.236,8.704
34.24,8.504
34.244,8.608
34.248,8.764
34.252,8.532
34.256,8.328
34.26,8.356
34.264,8.556
34.268,8.412
34.272,8.224
34.276,8.212
34.28,8.416
34.284,8.388
34.288,8.156
34.292,8.132
34.296,8.332
34.3,8.408
34.304,8.168
34.308,8.056
34.312,8.268
34.316,8.436
34.32,8.208
34.324,8.048
34.328,8.236
34.332,8.404
34.336,8.216
34.34,8.104
34.344,8.22
34.348,8.432
34.352,8.268
34.356,8.068
34.36,8.16
34.364,8.388
34.368,8.284
34.372,8.1
34.376,8.128
34.38,8.372
34.384,8.348
34.388,8.144
34.392,8.1
34.396,8.332
34.4,8.384
34.404,8.168
34.408,8.104
34.412,8.308
34.416,8.444
34.42,8.232
34.424,8.092
34.428,8.312
34.432,8.448
34.436,8.244
34.44,8.108
34.444,8.252
34.448,8.424
34.452,8.256
34.456,8.128
34.46,8.184
34.464,8.368
34.468,8.288
34.472,8.108
34.476,8.152
34.48,8.368
34.484,8.336
34.488,8.14
34.492,8.096
34.496,8.292
34.5,8.356
34.504,8.156
34.508,8.072
34.512,8.28
34.516,8.428
34.52,8.172
34.524,8.056
34.528,8.204
34.532,8.384
34.536,8.208
34.54,8.06
34.544,8.192
34.548,8.388
34.552,8.236
34.556,8.068
34.56,8.14
34.564,8.356
34.568,8.216
34.572,8.084
34.576,8.112
34.58,8.308
34.584,8.312
34.588,8.108
34.592,8.052
34.596,8.256
34.6,8.336
34.604,8.116
34.608,8.048
34.612,8.252
34.616,8.388
34.62,8.164
34.624,8.048
34.628,8.216
34.632,8.404
34.636,8.244
34.64,8.104
34.644,8.244
34.648,8.48
34.652,8.308
34.656,8.164
34.66,8.24
34.664,8.436
34.668,8.372
34.672,8.16
34.676,8.132
34.68,8.34
34.684,8.344
34.688,8.136
34.692,8.076
34.696,8.268
34.7,8.356
34.704,8.152
34.708,8.056
34.712,8.232
34.716,8.34
34.72,8.128
34.724,7.976
34.728,8.156
34.732,8.308
34.736,8.132
34.74,8.016
34.744,8.116
34.748,8.34
34.752,8.212
34.756,8.02
34.76,8.084
34.764,8.304
34.768,8.064
34.772,7.968
34.776,7.948
34.78,8.236
34.784,8.364
34.788,8.28
34.792,8.472
34.796,9.056
34.8,9.324
34.804,8.724
34.808,8.356
34.812,8.256
34.816,8.124
34.82,7.768
34.824,7.556
34.828,7.74
34.832,8.06
34.836,7.944
34.84,7.92
34.844,8.092
34.848,8.32
34.852,8.168
34.856,8.012
34.86,8.064
34.864,8.28
34.868,8.208
34.872,8.04
34.876,8.084
34.88,8.276
34.884,8.3
34.888,8.128
34.892,8.044
34.896,8.248
34.9,8.348
34.904,8.1
34.908,8.012
34.912,8.212
34.916,8.38
34.92,8.16
34.924,8.032
34.928,8.204
34.932,8.396
34.936,8.184
34.94,8.064
34.944,8.172
34.948,8.388
34.952,8.252
34.956,8.116
34.96,8.164
34.964,8.396
34.968,8.332
34.972,8.124
34.976,8.156
34.98,8.392
34.984,8.424
34.988,8.276
34.992,8.212
34.996,8.432
35,8.544
35.004,8.384
35.008,8.304
35.012,8.508
35.016,8.724
35.02,8.568
35.024,8.432
35.028,8.604
35.032,8.828
35.036,8.692
35.04,8.548
35.044,8.668
35.048,8.888
35.052,8.776
35.056,8.548
35.06,8.6
35.064,8.768
35.068,8.664
35.072,8.4
35.076,8.364
35.08,8.548
35.084,8.544
35.088,8.272
35.092,8.164
35.096,8.332
35.1,8.428
35.104,8.188
35.108,8.076
35.112,8.24
35.116,8.376
35.12,8.18
35.124,8.024
35.128,8.152
35.132,8.376
35.136,8.192
35.14,8.028
35.144,8.136
35.148,8.336
35.152,8.24
35.156,8.044
35.16,8.096
35.164,8.28
35.168,8.272
35.172,8.048
35.176,8.072
35.18,8.26
35.184,8.316
35.188,8.072
35.192,8.028
35.196,8.224
35.2,8.348
35.204,8.096
35.208,8.032
35.212,8.208
35.216,8.356
35.22,8.172
35.224,8.048
35.228,8.176
35.232,8.372
35.236,8.196
35.24,8.036
35.244,8.16
35.248,8.36
35.252,8.26
35.256,8.06
35.26,8.128
35.264,8.332
35.268,8.28
35.272,8.072
35.276,8.068
35.28,8.26
35.284,8.312
35.288,8.112
35.292,8.044
35.296,8.24
35.3,8.364
35.304,8.124
35.308,8.036
35.312,8.192
35.316,8.344
35.32,8.14
35.324,8.012
35.328,8.156
35.332,8.352
35.336,8.192
35.34,7.992
35.344,8.12
35.348,8.304
35.352,8.236
35.356,8.02
35.36,8.072
35.364,8.28
35.368,8.276
35.372,8.016
35.376,8.036
35.38,8.224
35.384,8.3
35.388,8.076
35.392,8.012
35.396,8.224
35.4,8.324
35.404,8.12
35.408,7.988
35.412,8.18
35.416,8.344
35.42,8.14
35.424,7.984
35.428,8.136
35.432,8.336
35.436,8.2
35.44,8.012
35.444,8.132
35.448,8.348
35.452,8.304
35.456,8.092
35.46,8.144
35.464,8.336
35.468,8.364
35.472,8.112
35.476,8.144
35.48,8.312
35.484,8.34
35.488,8.096
35.492,8.032
35.496,8.232
35.5,8.356
35.504,8.1
35.508,7.98
35.512,8.172
35.516,8.356
35.52,8.156
35.524,7.976
35.528,8.096
35.532,8.296
35.536,8.14
35.54,7.948
35.544,8.052
35.548,8.252
35.552,8.184
35.556,7.944
35.56,8.04
35.564,8.232
35.568,8.232
35.572,7.988
35.576,8
35.58,8.184
35.584,8.176
35.588,7.992
35.592,8.06
35.596,8.372
35.6,8.68
35.604,8.876
35.608,9.036
35.612,8.94
35.616,8.764
35.62,8.332
35.624,7.82
35.628,7.78
35.632,7.892
35.636,7.76
35.64,7.672
35.644,7.888
35.648,8.144
35.652,8.164
35.656,7.952
35.66,8.032
35.664,8.252
35.668,8.256
35.672,8.02
35.676,8.028
35.68,8.196
35.684,8.292
35.688,8.076
35.692,8.004
35.696,8.204
35.7,8.328
35.704,8.128
35.708,7.988
35.712,8.156
35.716,8.328
35.72,8.168
35.724,8.016
35.728,8.14
35.732,8.34
35.736,8.192
35.74,8.032
35.744,8.116
35.748,8.304
35.752,8.252
35.756,8.032
35.76,8.104
35.764,8.316
35.768,8.312
35.772,8.12
35.776,8.108
35.78,8.324
35.784,8.396
35.788,8.212
35.792,8.16
35.796,8.356
35.8,8.508
35.804,8.296
35.808,8.228
35.812,8.416
35.816,8.596
35.82,8.488
35.824,8.328
35.828,8.516
35.832,8.74
35.836,8.628
35.84,8.46
35.844,8.58
35.848,8.808
35.852,8.768
35.856,8.56
35.86,8.612
35.864,8.8
35.868,8.768
35.872,8.496
35.876,8.46
35.88,8.588
35.884,8.62
35.888,8.332
35.892,8.26
35.896,8.4
35.9,8.488
35.904,8.26
35.908,8.112
35.912,8.248
35.916,8.384
35.92,8.2
35.924,8.036
35.928,8.164
35.932,8.324
35.936,8.216
35.94,7.996
35.944,8.108
35.948,8.284
35.952,8.232
35.956,7.988
35.96,8.096
35.964,8.264
35.968,8.276
35.972,8.052
35.976,8.04
35.98,8.232
35.984,8.288
35.988,8.06
35.992,8.02
35.996,8.22
36,8.328
36.004,8.112
36.008,8.012
36.012,8.148
36.016,8.332
36.02,8.152
36.024,8.012
36.028,8.132
36.032,8.34
36.036,8.196
36.04,8.012
36.044,8.108
36.048,8.308
36.052,8.248
36.056,8.04
36.06,8.1
36.064,8.284
36.068,8.272
36.072,8.084
36.076,8.056
36.08,8.236
36.084,8.308
36.088,8.092
36.092,8.028
36.096,8.224
36.1,8.352
36.104,8.144
36.108,8.036
36.112,8.176
36.116,8.332
36.12,8.172
36.124,8.008
36.128,8.144
36.132,8.324
36.136,8.184
36.14,8.032
36.144,8.096
36.148,8.288
36.152,8.208
36.156,8.02
36.16,8.076
36.164,8.268
36.168,8.276
36.172,8.052
36.176,8.056
36.18,8.216
36.184,8.292
36.188,8.068
36.192,8.02
36.196,8.192
36.2,8.332
36.204,8.132
36.208,8.024
36.212,8.128
36.216,8.288
36.22,8.124
36.224,7.992
36.228,8.092
36.232,8.296
36.236,8.168
36.24,8.008
36.244,8.108
36.248,8.268
36.252,8.212
36.256,8.048
36.26,8.12
36.264,8.288
36.268,8.312
36.272,8.104
36.276,8.112
36.28,8.288
36.284,8.352
36.288,8.128
36.292,8.04
36.296,8.184
36.3,8.352
36.304,8.1
36.308,8.028
36.312,8.14
36.316,8.284
36.32,8.116
36.324,7.964
36.328,8.092
36.332,8.264
36.336,8.124
36.34,7.948
36.344,8.036
36.348,8.192
36.352,8.136
36.356,7.956
36.36,8.012
36.364,8.176
36.368,8.188
36.372,7.972
36.376,7.996
36.38,8.16
36.384,8.216
36.388,7.984
36.392,7.9
36.396,8.092
36.4,8.308
36.404,8.232
36.408,8.364
36.412,8.872
36.416,9.332
36.42,8.844
36.424,8.344
36.428,8.224
36.432,8.064
36.436,7.768
36.44,7.536
36.444,7.644
36.448,7.916
36.452,7.976
36.456,7.836
36.46,7.972
36.464,8.164
36.468,8.176
36.472,7.976
36.476,8.008
36.48,8.136
36.484,8.228
36.488,8
36.492,7.964
36.496,8.12
36.5,8.26
36.504,8.052
36.508,7.964
36.512,8.1
36.516,8.256
36.52,8.076
36.524,7.944
36.528,8.088
36.532,8.26
36.536,8.148
36.54,7.964
36.544,8.06
36.548,8.212
36.552,8.164
36.556,8
36.56,8.06
36.564,8.224
36.568,8.24
36.572,8.036
36.576,8.088
36.58,8.232
36.584,8.288
36.588,8.108
36.592,8.076
36.596,8.224
36.6,8.4
36.604,8.208
36.608,8.124
36.612,8.3
36.616,8.488
36.62,8.332
36.624,8.212
36.628,8.364
36.632,8.564
36.636,8.5
36.64,8.34
36.644,8.476
36.648,8.676
36.652,8.648
36.656,8.472
36.66,8.544
36.664,8.708
36.668,8.748
36.672,8.508
36.676,8.504
36.68,8.596
36.684,8.64
36.688,8.384
36.692,8.3
36.696,8.384
36.7,8.456
36.704,8.22
36.708,8.096
36.712,8.212
36.716,8.332
36.72,8.156
36.724,7.968
36.728,8.088
36.732,8.244
36.736,8.132
36.74,7.936
36.744,8.06
36.748,8.208
36.752,8.152
36.756,7.968
36.76,8.016
36.764,8.176
36.768,8.188
36.772,7.968
36.776,8
36.78,8.156
36.784,8.22
36.788,7.992
36.792,7.96
36.796,8.084
36.8,8.212
36.804,8.044
36.808,7.96
36.812,8.092
36.816,8.22
36.82,8.076
36.824,7.908
36.828,8.032
36.832,8.2
36.836,8.1
36.84,7.92
36.844,8.052
36.848,8.208
36.852,8.14
36.856,7.96
36.86,8.032
36.864,8.18
36.868,8.16
36.872,7.996
36.876,8.044
36.88,8.188
36.884,8.264
36.888,8.004
36.892,7.996
36.896,8.116
36.9,8.252
36.904,8.068
36.908,7.96
36.912,8.092
36.916,8.22
36.92,8.072
36.924,7.936
36.928,8.056
36.932,8.224
36.936,8.116
36.94,7.932
36.944,8.056
36.948,8.216
36.952,8.148
36.956,7.944
36.96,8.024
36.964,8.152
36.968,8.188
36.972,7.98
36.976,8.024
36.98,8.144
36.984,8.212
36.988,8.032
36.992,7.976
36.996,8.072
37,8.216
37.004,8.032
37.008,7.932
37.012,8.088
37.016,8.224
37.02,8.064
37.024,7.916
37.028,8.028
37.032,8.188
37.036,8.104
37.04,7.924
37.044,8.04
37.048,8.18
37.052,8.128
37.056,7.936
37.06,8
37.064,8.148
37.068,8.164
37.072,7.956
37.076,8
37.08,8.104
37.084,8.212
37.088,8
37.092,7.968
37.096,8.096
37.1,8.236
37.104,8.064
37.108,7.988
37.112,8.16
37.116,8.3
37.12,8.156
37.124,7.98
37.128,8.132
37.132,8.292
37.136,8.18
37.14,7.98
37.144,8.084
37.148,8.224
37.152,8.172
37.156,7.976
37.16,8.056
37.164,8.152
37.168,8.168
37.172,7.976
37.176,8.008
37.18,8.128
37.184,8.192
37.188,7.948
37.192,7.888
37.196,8.044
37.2,8.164
37.204,8.024
37.208,7.888
37.212,8.064
37.216,8.192
37.22,8.04
37.224,7.892
37.228,8.02
37.232,8.152
37.236,8.06
37.24,7.844
37.244,7.936
37.248,8.148
37.252,8.26
37.256,8.22
37.26,8.628
37.264,9.108
37.268,9.104
37.272,8.448
37.276,8.26
37.28,8.02
37.284,7.9
37.288,7.608
37.292,7.5
37.296,7.728
37.3,7.976
37.304,7.88
37.308,7.836
37.312,8.024
37.316,8.176
37.32,8.048
37.324,7.88
37.328,8.028
37.332,8.176
37.336,8.08
37.34,7.924
37.344,8.048
37.348,8.176
37.352,8.136
37.356,7.956
37.36,8.024
37.364,8.168
37.368,8.196
37.372,7.984
37.376,7.98
37.38,8.168
37.384,8.24
37.388,8.036
37.392,8.004
37.396,8.116
37.4,8.26
37.404,8.084
37.408,7.94
37.412,8.112
37.416,8.272
37.42,8.148
37.424,7.984
37.428,8.14
37.432,8.288
37.436,8.2
37.44,8.016
37.444,8.152
37.448,8.296
37.452,8.312
37.456,8.12
37.46,8.208
37.464,8.368
37.468,8.432
37.472,8.248
37.476,8.324
37.48,8.484
37.484,8.608
37.488,8.424
37.492,8.408
37.496,8.568
37.5,8.724
37.504,8.564
37.508,8.476
37.512,8.632
37.516,8.772
37.52,8.62
37.524,8.448
37.528,8.54
37.532,8.672
37.536,8.524
37.54,8.28
37.544,8.352
37.548,8.472
37.552,8.392
37.556,8.152
37.56,8.16
37.564,8.264
37.568,8.276
37.572,8.032
37.576,8.056
37.58,8.164
37.584,8.244
37.588,8.048
37.592,7.984
37.596,8.12
37.6,8.236
37.604,8.056
37.608,7.92
37.612,8.092
37.616,8.228
37.62,8.092
37.624,7.94
37.628,8.072
37.632,8.192
37.636,8.1
37.64,7.9
37.644,8.04
37.648,8.208
37.652,8.156
37.656,7.944
37.66,8.032
37.664,8.148
37.668,8.196
37.672,7.988
37.676,8.02
37.68,8.14
37.684,8.22
37.688,8.064
37.692,7.996
37.696,8.108
37.7,8.228
37.704,8.052
37.708,7.952
37.712,8.096
37.716,8.252
37.72,8.116
37.724,7.932
37.728,8.064
37.732,8.192
37.736,8.1
37.74,7.912
37.744,8.04
37.748,8.16
37.752,8.14
37.756,7.988
37.76,8.052
37.764,8.144
37.768,8.164
37.772,8.004
37.776,7.988
37.78,8.104
37.784,8.2
37.788,8.048
37.792,7.96
37.796,8.1
37.8,8.192
37.804,8.052
37.808,7.924
37.812,8.048
37.816,8.192
37.82,8.1
37.824,7.912
37.828,8.052
37.832,8.18
37.836,8.112
37.84,7.908
37.844,8.028
37.848,8.184
37.852,8.136
37.856,7.956
37.86,7.98
37.864,8.1
37.868,8.164
37.872,7.964
37.876,7.94
37.88,8.088
37.884,8.18
37.888,7.976
37.892,7.936
37.896,8.032
37.9,8.172
37.904,8.032
37.908,7.892
37.912,8.02
37.916,8.168
37.92,8.064
37.924,7.924
37.928,8.064
37.932,8.212
37.936,8.164
37.94,7.976
37.944,8.1
37.948,8.224
37.952,8.228
37.956,8.028
37.96,8.076
37.964,8.176
37.968,8.176
37.972,7.964
37.976,7.96
37.98,8.124
37.984,8.184
37.988,7.992
37.992,7.92
37.996,8.072
38,8.188
38.004,7.996
38.008,7.86
38.012,7.984
38.016,8.132
38.02,8.02
38.024,7.832
38.028,7.98
38.032,8.12
38.036,8.048
38.04,7.848
38.044,7.964
38.048,8.104
38.052,8.096
38.056,7.896
38.06,7.912
38.064,7.992
38.068,8.076
38.072,8.028
38.076,8.136
38.08,8.5
38.084,9.024
38.088,9.092
38.092,8.708
38.096,8.484
38.1,8.312
38.104,7.856
38.108,7.544
38.112,7.584
38.116,7.7
38.12,7.712
38.124,7.684
38.128,7.916
38.132,8.072
38.136,8.052
38.14,7.872
38.144,8
38.148,8.104
38.152,8.104
38.156,7.948
38.16,7.98
38.164,8.092
38.168,8.152
38.172,7.952
38.176,7.964
38.18,8.092
38.184,8.172
38.188,8.024
38.192,7.928
38.196,8.096
38.2,8.204
38.204,8.052
38.208,7.9
38.212,8.056
38.216,8.188
38.22,8.092
38.224,7.92
38.228,8.092
38.232,8.232
38.236,8.136
38.24,7.976
38.244,8.108
38.248,8.212
38.252,8.204
38.256,8.044
38.26,8.128
38.264,8.248
38.268,8.288
38.272,8.132
38.276,8.14
38.28,8.28
38.284,8.392
38.288,8.28
38.292,8.212
38.296,8.384
38.3,8.508
38.304,8.412
38.308,8.308
38.312,8.476
38.316,8.644
38.32,8.58
38.324,8.428
38.328,8.604
38.332,8.728
38.336,8.68
38.34,8.46
38.344,8.572
38.348,8.688
38.352,8.592
38.356,8.392
38.36,8.432
38.364,8.48
38.368,8.452
38.372,8.22
38.376,8.168
38.38,8.252
38.384,8.308
38.388,8.144
38.392,8.028
38.396,8.156
38.4,8.26
38.404,8.104
38.408,7.96
38.412,8.108
38.416,8.22
38.42,8.108
38.424,7.94
38.428,8.1
38.432,8.196
38.436,8.132
38.44,7.94
38.444,8.088
38.448,8.192
38.452,8.152
38.456,7.976
38.46,8.06
38.464,8.144
38.468,8.184
38.472,7.976
38.476,8
38.48,8.14
38.484,8.228
38.488,8.044
38.492,7.976
38.496,8.12
38.5,8.244
38.504,8.128
38.508,7.968
38.512,8.12
38.516,8.248
38.52,8.144
38.524,7.972
38.528,8.116
38.532,8.228
38.536,8.172
38.54,8.008
38.544,8.124
38.548,8.212
38.552,8.208
38.556,8.024
38.56,8.072
38.564,8.196
38.568,8.232
38.572,8.068
38.576,8.004
38.58,8.172
38.584,8.204
38.588,8.072
38.592,7.984
38.596,8.14
38.6,8.228
38.604,8.12
38.608,7.964
38.612,8.112
38.616,8.232
38.62,8.124
38.624,7.96
38.628,8.096
38.632,8.216
38.636,8.14
38.64,7.96
38.644,8.072
38.648,8.192
38.652,8.168
38.656,8.004
38.66,8.036
38.664,8.176
38.668,8.188
38.672,8.012
38.676,7.988
38.68,8.144
38.684,8.212
38.688,8.08
38.692,7.984
38.696,8.124
38.7,8.216
38.704,8.096
38.708,7.964
38.712,8.1
38.716,8.204
38.72,8.116
38.724,7.952
38.728,8.128
38.732,8.216
38.736,8.132
38.74,7.972
38.744,8.1
38.748,8.204
38.752,8.236
38.756,8.072
38.76,8.12
38.764,8.236
38.768,8.28
38.772,8.124
38.776,8.1
38.78,8.22
38.784,8.288
38.788,8.096
38.792,8
38.796,8.164
38.8,8.252
38.804,8.136
38.808,7.944
38.812,8.112
38.816,8.216
38.82,8.136
38.824,7.936
38.828,8.072
38.832,8.176
38.836,8.108
38.84,7.924
38.844,8.036
38.848,8.136
38.852,8.092
38.856,7.98
38.86,8.024
38.864,8.16
38.868,8.156
38.872,7.984
38.876,7.932
38.88,8.084
38.884,8.128
38.888,7.972
38.892,7.932
38.896,8.232
38.9,8.448
38.904,8.612
38.908,8.864
38.912,9.192
38.916,8.872
38.92,8.5
38.924,7.976
38.928,7.844
38.932,7.816
38.936,7.716
38.94,7.576
38.944,7.84
38.948,8.028
38.952,8.076
38.956,7.952
38.96,8
38.964,8.124
38.968,8.192
38.972,8.012
38.976,7.956
38.98,8.1
38.984,8.2
38.988,8.06
38.992,7.952
38.996,8.124
39,8.228
39.004,8.124
39.008,7.94
39.012,8.12
39.016,8.244
39.02,8.14
39.024,7.952
39.028,8.124
39.032,8.212
39.036,8.18
39.04,8
39.044,8.108
39.048,8.212
39.052,8.192
39.056,8.04
39.06,8.08
39.064,8.212
39.068,8.24
39.072,8.104
39.076,8.06
39.08,8.208
39.084,8.272
39.088,8.176
39.092,8.08
39.096,8.236
39.1,8.38
39.104,8.288
39.108,8.16
39.112,8.38
39.116,8.484
39.12,8.416
39.124,8.268
39.128,8.456
39.132,8.596
39.136,8.58
39.14,8.428
39.144,8.564
39.148,8.684
39.152,8.688
39.156,8.532
39.16,8.572
39.164,8.7
39.168,8.716
39.172,8.548
39.176,8.464
39.18,8.564
39.184,8.588
39.188,8.38
39.192,8.224
39.196,8.352
39.2,8.432
39.204,8.284
39.208,8.084
39.212,8.216
39.216,8.296
39.22,8.184
