0,8.076
0.004,8.356
0.008,8.548
0.012,8.28
0.016,8.116
0.02,8.36
0.024,8.596
0.028,8.432
0.032,8.26
0.036,8.408
0.04,8.64
0.044,8.544
0.048,8.344
0.052,8.464
0.056,8.712
0.06,8.68
0.064,8.436
0.068,8.464
0.072,8.764
0.076,8.788
0.08,8.54
0.084,8.444
0.088,8.724
0.092,8.824
0.096,8.548
0.1,8.404
0.104,8.592
0.108,8.748
0.112,8.444
0.116,8.252
0.12,8.404
0.124,8.556
0.128,8.336
0.132,8.128
0.136,8.24
0.14,8.452
0.144,8.284
0.148,8.052
0.152,8.124
0.156,8.344
0.16,8.288
0.164,8.044
0.168,8.02
0.172,8.284
0.176,8.356
0.18,8.048
0.184,7.964
0.188,8.232
0.192,8.36
0.196,8.076
0.2,7.972
0.204,8.2
0.208,8.396
0.212,8.132
0.216,7.976
0.22,8.172
0.224,8.336
0.228,8.176
0.232,7.96
0.236,8.1
0.24,8.328
0.244,8.192
0.248,7.948
0.252,8.068
0.256,8.316
0.26,8.256
0.264,8
0.268,8.016
0.272,8.24
0.276,8.32
0.28,8.044
0.284,7.984
0.288,8.232
0.292,8.352
0.296,8.072
0.3,7.944
0.304,8.196
0.308,8.36
0.312,8.128
0.316,7.932
0.32,8.172
0.324,8.376
0.328,8.172
0.332,7.972
0.336,8.108
0.34,8.34
0.344,8.208
0.348,8.016
0.352,8.068
0.356,8.3
0.36,8.244
0.364,8.008
0.368,8.06
0.372,8.252
0.376,8.32
0.38,8.04
0.384,7.96
0.388,8.256
0.392,8.364
0.396,8.084
0.4,7.932
0.404,8.208
0.408,8.352
0.412,8.112
0.416,7.92
0.42,8.132
0.424,8.36
0.428,8.14
0.432,7.944
0.436,8.116
0.44,8.34
0.444,8.2
0.448,7.964
0.452,8.072
0.456,8.316
0.46,8.248
0.464,7.968
0.468,7.988
0.472,8.224
0.476,8.296
0.48,8.036
0.484,7.94
0.488,8.172
0.492,8.348
0.496,8.076
0.5,7.94
0.504,8.156
0.508,8.348
0.512,8.072
0.516,7.904
0.52,8.152
0.524,8.336
0.528,8.136
0.532,7.94
0.536,8.132
0.54,8.324
0.544,8.2
0.548,7.988
0.552,8.092
0.556,8.352
0.56,8.34
0.564,8.128
0.568,8.164
0.572,8.468
0.576,8.528
0.58,8.252
0.584,8.228
0.588,8.472
0.592,8.616
0.596,8.316
0.6,8.16
0.604,8.42
0.608,8.576
0.612,8.3
0.616,8.084
0.62,8.28
0.624,8.476
0.628,8.212
0.632,7.988
0.636,8.124
0.64,8.288
0.644,8.116
0.648,7.928
0.652,8
0.656,8.244
0.66,8.196
0.664,7.94
0.668,7.96
0.672,8.18
0.676,8.236
0.68,7.976
0.684,7.884
0.688,8.156
0.692,8.292
0.696,8.048
0.7,7.884
0.704,8.156
0.708,8.256
0.712,7.96
0.716,7.76
0.72,8.116
0.724,8.644
0.728,8.864
0.732,9.092
0.736,9.848
0.74,10.86
0.744,11.568
0.748,11.24
0.752,9.844
0.756,9.052
0.76,8.572
0.764,8.208
0.768,8.176
0.772,8.448
0.776,8.452
0.78,8.14
0.784,8.008
0.788,8.228
0.792,8.332
0.796,8.024
0.8,7.904
0.804,8.152
0.808,8.348
0.812,8.088
0.816,7.948
0.82,8.152
0.824,8.34
0.828,8.132
0.832,7.936
0.836,8.124
0.84,8.34
0.844,8.196
0.848,8.008
0.852,8.092
0.856,8.308
0.86,8.252
0.864,8.028
0.868,8.028
0.872,8.316
0.876,8.328
0.88,8.088
0.884,8.016
0.888,8.3
0.892,8.424
0.896,8.14
0.9,8.008
0.904,8.268
0.908,8.48
0.912,8.228
0.916,8.04
0.92,8.308
0.924,8.516
0.928,8.332
0.932,8.136
0.936,8.32
0.94,8.564
0.944,8.452
0.948,8.24
0.952,8.36
0.956,8.624
0.96,8.572
0.964,8.38
0.968,8.38
0.972,8.676
0.976,8.756
0.98,8.476
0.984,8.404
0.988,8.676
0.992,8.804
0.996,8.524
1,8.408
1.004,8.668
1.008,8.844
1.012,8.572
1.016,8.356
1.02,8.556
1.024,8.748
1.028,8.44
1.032,8.252
1.036,8.396
1.04,8.56
1.044,8.36
1.048,8.132
1.052,8.208
1.056,8.424
1.06,8.32
1.064,8.044
1.068,8.024
1.072,8.276
1.076,8.324
1.08,8.032
1.084,7.96
1.088,8.208
1.092,8.348
1.096,8.032
1.1,7.908
1.104,8.172
1.108,8.312
1.112,8.08
1.116,7.896
1.12,8.092
1.124,8.328
1.128,8.116
1.132,7.928
1.136,8.068
1.14,8.284
1.144,8.164
1.148,7.928
1.152,8.052
1.156,8.264
1.16,8.224
1.164,7.972
1.168,7.984
1.172,8.24
1.176,8.28
1.18,8
1.184,7.924
1.188,8.248
1.192,8.324
1.196,8.044
1.2,7.892
1.204,8.172
1.208,8.404
1.212,8.08
1.216,7.904
1.22,8.144
1.224,8.352
1.228,8.136
1.232,7.936
1.236,8.112
1.24,8.344
1.244,8.168
1.248,7.96
1.252,8.048
1.256,8.304
1.26,8.236
1.264,7.984
1.268,7.988
1.272,8.244
1.276,8.304
1.28,8.032
1.284,7.948
1.288,8.196
1.292,8.316
1.296,8.04
1.3,7.916
1.304,8.152
1.308,8.324
1.312,8.08
1.316,7.924
1.32,8.148
1.324,8.336
1.328,8.084
1.332,7.92
1.336,8.092
1.34,8.312
1.344,8.152
1.348,7.948
1.352,8.028
1.356,8.3
1.36,8.228
1.364,7.96
1.368,7.972
1.372,8.224
1.376,8.324
1.38,8.04
1.384,8.012
1.388,8.3
1.392,8.412
1.396,8.152
1.4,8.076
1.404,8.376
1.408,8.56
1.412,8.288
1.416,8.124
1.42,8.392
1.424,8.568
1.428,8.368
1.432,8.188
1.436,8.332
1.44,8.524
1.444,8.368
1.448,8.116
1.452,8.2
1.456,8.404
1.46,8.26
1.464,8.048
1.468,8.04
1.472,8.264
1.476,8.252
1.48,8.004
1.484,7.944
1.488,8.204
1.492,8.268
1.496,8.016
1.5,7.888
1.504,8.168
1.508,8.328
1.512,8.036
1.516,7.9
1.52,8.128
1.524,8.344
1.528,8.096
1.532,7.928
1.536,8.08
1.54,8.256
1.544,8.08
1.548,7.808
1.552,8
1.556,8.556
1.56,8.892
1.564,9.06
1.568,9.64
1.572,10.604
1.576,11.576
1.58,11.488
1.584,10.088
1.588,9.132
1.592,8.728
1.596,8.324
1.6,8.14
1.604,8.408
1.608,8.552
1.612,8.256
1.616,8.04
1.62,8.256
1.624,8.38
1.628,8.168
1.632,7.98
1.636,8.144
1.64,8.348
1.644,8.196
1.648,7.968
1.652,8.072
1.656,8.332
1.66,8.288
1.664,8.048
1.668,8.036
1.672,8.32
1.676,8.344
1.68,8.092
1.684,8.016
1.688,8.28
1.692,8.404
1.696,8.14
1.7,8.024
1.704,8.288
1.708,8.468
1.712,8.216
1.716,8.024
1.72,8.28
1.724,8.508
1.728,8.288
1.732,8.08
1.736,8.288
1.74,8.508
1.744,8.384
1.748,8.196
1.752,8.264
1.756,8.548
1.76,8.472
1.764,8.272
1.768,8.316
1.772,8.584
1.776,8.632
1.78,8.348
1.784,8.348
1.788,8.616
1.792,8.744
1.796,8.496
1.8,8.356
1.804,8.672
1.808,8.868
1.812,8.6
1.816,8.452
1.82,8.7
1.824,8.916
1.828,8.692
1.832,8.528
1.836,8.696
1.84,8.896
1.844,8.712
1.848,8.476
1.852,8.556
1.856,8.76
1.86,8.66
1.864,8.38
1.868,8.352
1.872,8.576
1.876,8.532
1.88,8.248
1.884,8.16
1.888,8.404
1.892,8.496
1.896,8.192
1.9,8.04
1.904,8.292
1.908,8.468
1.912,8.16
1.916,8.024
1.92,8.264
1.924,8.42
1.928,8.204
1.932,8.004
1.936,8.204
1.94,8.4
1.944,8.252
1.948,8.016
1.952,8.108
1.956,8.364
1.96,8.296
1.964,8.052
1.968,8.072
1.972,8.332
1.976,8.344
1.98,8.076
1.984,8.028
1.988,8.256
1.992,8.38
1.996,8.144
2,8
2.004,8.256
2.008,8.464
2.012,8.14
2.016,7.984
2.02,8.216
2.024,8.46
2.028,8.228
2.032,8.004
2.036,8.196
2.04,8.428
2.044,8.296
2.048,8.06
2.052,8.148
2.056,8.388
2.06,8.332
2.064,8.124
2.068,8.112
2.072,8.364
2.076,8.392
2.08,8.096
2.084,8.072
2.088,8.332
2.092,8.408
2.096,8.172
2.1,8.016
2.104,8.264
2.108,8.424
2.112,8.184
2.116,8.012
2.12,8.24
2.124,8.392
2.128,8.164
2.132,8.024
2.136,8.212
2.14,8.412
2.144,8.236
2.148,8.012
2.152,8.124
2.156,8.392
2.16,8.276
2.164,8.048
2.168,8.06
2.172,8.324
2.176,8.36
2.18,8.112
2.184,8.032
2.188,8.292
2.192,8.392
2.196,8.124
2.2,8.008
2.204,8.26
2.208,8.436
2.212,8.164
2.216,7.984
2.22,8.276
2.224,8.492
2.228,8.288
2.232,8.12
2.236,8.296
2.24,8.556
2.244,8.432
2.248,8.256
2.252,8.368
2.256,8.608
2.26,8.54
2.264,8.312
2.268,8.32
2.272,8.592
2.276,8.636
2.28,8.336
2.284,8.248
2.288,8.512
2.292,8.604
2.296,8.304
2.3,8.16
2.304,8.404
2.308,8.508
2.312,8.176
2.316,8
2.32,8.252
2.324,8.424
2.328,8.18
2.332,7.996
2.336,8.18
2.34,8.372
2.344,8.228
2.348,7.98
2.352,8.104
2.356,8.308
2.36,8.272
2.364,8.012
2.368,8.068
2.372,8.308
2.376,8.376
2.38,8.064
2.384,7.984
2.388,8.224
2.392,8.296
2.396,8.032
2.4,8.144
2.404,8.792
2.408,9.432
2.412,9.636
2.416,10.092
2.42,11.236
2.424,12.016
2.428,11.184
2.432,9.48
2.436,8.9
2.44,8.696
2.444,8.492
2.448,8.272
2.452,8.344
2.456,8.58
2.46,8.44
2.464,8.144
2.468,8.136
2.472,8.392
2.476,8.376
2.48,8.136
2.484,8.076
2.488,8.324
2.492,8.448
2.496,8.18
2.5,8.048
2.504,8.32
2.508,8.456
2.512,8.204
2.516,8.032
2.52,8.308
2.524,8.504
2.528,8.292
2.532,8.068
2.536,8.272
2.54,8.504
2.544,8.352
2.548,8.132
2.552,8.252
2.556,8.48
2.56,8.4
2.564,8.176
2.568,8.236
2.572,8.488
2.576,8.5
2.58,8.236
2.584,8.216
2.588,8.496
2.592,8.592
2.596,8.304
2.6,8.228
2.604,8.504
2.608,8.692
2.612,8.424
2.616,8.268
2.62,8.552
2.624,8.744
2.628,8.568
2.632,8.384
2.636,8.612
2.64,8.84
2.644,8.68
2.648,8.5
2.652,8.632
2.656,8.872
2.66,8.848
2.664,8.588
2.668,8.648
2.672,8.9
2.676,8.928
2.68,8.684
2.684,8.572
2.688,8.844
2.692,8.94
2.696,8.644
2.7,8.468
2.704,8.696
2.708,8.808
2.712,8.524
2.716,8.304
2.72,8.484
2.724,8.668
2.728,8.384
2.732,8.172
2.736,8.352
2.74,8.544
2.744,8.372
2.748,8.132
2.752,8.236
2.756,8.456
2.76,8.352
2.764,8.12
2.768,8.152
2.772,8.404
2.776,8.424
2.78,8.14
2.784,8.08
2.788,8.34
2.792,8.424
2.796,8.12
2.8,8.056
2.804,8.304
2.808,8.476
2.812,8.18
2.816,8.004
2.82,8.252
2.824,8.472
2.828,8.248
2.832,8
2.836,8.212
2.84,8.448
2.844,8.288
2.848,8.06
2.852,8.184
2.856,8.42
2.86,8.348
2.864,8.112
2.868,8.148
2.872,8.392
2.876,8.396
2.88,8.152
2.884,8.084
2.888,8.384
2.892,8.452
2.896,8.156
2.9,8.064
2.904,8.328
2.908,8.512
2.912,8.232
2.916,8.052
2.92,8.308
2.924,8.476
2.928,8.244
2.932,8.088
2.936,8.256
2.94,8.48
2.944,8.3
2.948,8.092
2.952,8.216
2.956,8.44
2.96,8.352
2.964,8.108
2.968,8.136
2.972,8.38
2.976,8.432
2.98,8.16
2.984,8.076
2.988,8.368
2.992,8.452
2.996,8.196
3,8.084
3.004,8.288
3.008,8.48
3.012,8.196
3.016,8.064
3.02,8.276
3.024,8.472
3.028,8.252
3.032,8.056
3.036,8.272
3.04,8.464
3.044,8.288
3.048,8.108
3.052,8.228
3.056,8.412
3.06,8.344
3.064,8.108
3.068,8.148
3.072,8.388
3.076,8.408
3.08,8.148
3.084,8.08
3.088,8.372
3.092,8.444
3.096,8.188
3.1,8.052
3.104,8.336
3.108,8.496
3.112,8.204
3.116,8.064
3.12,8.328
3.124,8.524
3.128,8.316
3.132,8.156
3.136,8.364
3.14,8.608
3.144,8.5
3.148,8.308
3.152,8.44
3.156,8.664
3.16,8.612
3.164,8.396
3.168,8.392
3.172,8.656
3.176,8.68
3.18,8.388
3.184,8.316
3.188,8.548
3.192,8.648
3.196,8.344
3.2,8.216
3.204,8.42
3.208,8.532
3.212,8.24
3.216,8.06
3.22,8.296
3.224,8.472
3.228,8.196
3.232,8.044
3.236,8.216
3.24,8.436
3.244,8.248
3.248,8.044
3.252,8.16
3.256,8.412
3.26,8.284
3.264,8.072
3.268,8.128
3.272,8.388
3.276,8.38
3.28,8.096
3.284,8.02
3.288,8.26
3.292,8.324
3.296,8.092
3.3,8.192
3.304,8.852
3.308,9.48
3.312,9.7
3.316,10.14
3.32,11.28
3.324,12.028
3.328,11.06
3.332,9.404
3.336,8.852
3.34,8.768
3.344,8.52
3.348,8.3
3.352,8.38
3.356,8.564
3.36,8.432
3.364,8.176
3.368,8.184
3.372,8.412
3.376,8.388
3.38,8.16
3.384,8.108
3.388,8.344
3.392,8.448
3.396,8.152
3.4,8.064
3.404,8.316
3.408,8.476
3.412,8.192
3.416,8.072
3.42,8.316
3.424,8.516
3.428,8.284
3.432,8.088
3.436,8.292
3.44,8.48
3.444,8.344
3.448,8.132
3.452,8.256
3.456,8.504
3.46,8.428
3.464,8.188
3.468,8.24
3.472,8.504
3.476,8.492
3.48,8.244
3.484,8.212
3.488,8.484
3.492,8.588
3.496,8.312
3.5,8.228
3.504,8.5
3.508,8.676
3.512,8.448
3.516,8.304
3.52,8.536
3.524,8.764
3.528,8.516
3.532,8.368
3.536,8.6
3.54,8.836
3.544,8.66
3.548,8.496
3.552,8.64
3.556,8.896
3.56,8.78
3.564,8.584
3.568,8.636
3.572,8.908
3.576,8.948
3.58,8.652
3.584,8.592
3.588,8.828
3.592,8.928
3.596,8.608
3.6,8.492
3.604,8.692
3.608,8.816
3.612,8.5
3.616,8.312
3.62,8.528
3.624,8.676
3.628,8.384
3.632,8.164
3.636,8.332
3.64,8.528
3.644,8.348
3.648,8.124
3.652,8.252
3.656,8.448
3.66,8.332
3.664,8.096
3.668,8.16
3.672,8.364
3.676,8.388
3.68,8.132
3.684,8.088
3.688,8.344
3.692,8.4
3.696,8.088
3.7,8.044
3.704,8.312
3.708,8.42
3.712,8.164
3.716,8.024
3.72,8.248
3.724,8.44
3.728,8.176
3.732,8
3.736,8.236
3.74,8.42
3.744,8.252
3.748,8.012
3.752,8.18
3.756,8.404
3.76,8.28
3.764,8.04
3.768,8.108
3.772,8.368
3.776,8.36
3.78,8.112
3.784,8.052
3.788,8.316
3.792,8.436
3.796,8.172
3.8,8.044
3.804,8.288
3.808,8.428
3.812,8.2
3.816,8.04
3.82,8.264
3.824,8.432
3.828,8.236
3.832,8.02
3.836,8.208
3.84,8.432
3.844,8.208
3.848,8.016
3.852,8.192
3.856,8.412
3.86,8.296
3.864,8.064
3.868,8.096
3.872,8.364
3.876,8.336
3.88,8.1
3.884,8.052
3.888,8.228
3.892,8.424
3.896,8.128
3.9,8.024
3.904,8.256
3.908,8.44
3.912,8.132
3.916,7.992
3.92,8.248
3.924,8.424
3.928,8.192
3.932,7.996
3.936,8.208
3.94,8.444
3.944,8.268
3.948,8.024
3.952,8.152
3.956,8.368
3.96,8.284
3.964,8.044
3.968,8.104
3.972,8.348
3.976,8.348
3.98,8.076
3.984,8.076
3.988,8.328
3.992,8.412
3.996,8.108
4,7.988
4.004,8.28
4.008,8.444
4.012,8.152
4.016,8.008
4.02,8.288
4.024,8.5
4.028,8.296
4.032,8.104
4.036,8.328
4.04,8.588
4.044,8.396
4.048,8.252
4.052,8.36
4.056,8.62
4.06,8.524
4.064,8.292
4.068,8.4
4.072,8.632
4.076,8.584
4.08,8.296
4.084,8.204
4.088,8.5
4.092,8.556
4.096,8.232
4.1,8.064
4.104,8.336
4.108,8.46
4.112,8.148
4.116,8
4.12,8.212
4.124,8.412
4.128,8.128
4.132,8
4.136,8.156
4.14,8.368
4.144,8.18
4.148,7.976
4.152,8.14
4.156,8.36
4.16,8.232
4.164,8.004
4.168,8.06
4.172,8.308
4.176,8.296
4.18,8.032
4.184,7.948
4.188,8.168
4.192,8.236
4.196,8.184
4.2,8.46
4.204,9.164
4.208,9.804
4.212,10.184
4.216,10.928
4.22,11.68
4.224,11.052
4.228,9.412
4.232,8.5
4.236,8.448
4.24,8.58
4.244,8.428
4.248,8.204
4.252,8.328
4.256,8.484
4.26,8.348
4.264,8.096
4.268,8.108
4.272,8.348
4.276,8.348
4.28,8.088
4.284,8.056
4.288,8.304
4.292,8.36
4.296,8.124
4.3,8.02
4.304,8.3
4.308,8.432
4.312,8.16
4.316,8.012
4.32,8.268
4.324,8.44
4.328,8.22
4.332,8.056
4.336,8.244
4.34,8.472
4.344,8.268
4.348,8.108
4.352,8.228
4.356,8.472
4.36,8.34
4.364,8.144
4.368,8.228
4.372,8.484
4.376,8.468
4.38,8.184
4.384,8.18
4.388,8.464
4.392,8.552
4.396,8.276
4.4,8.24
4.404,8.488
4.408,8.676
4.412,8.444
4.416,8.276
4.42,8.54
4.424,8.748
4.428,8.512
4.432,8.364
4.436,8.588
4.44,8.804
4.444,8.648
4.448,8.444
4.452,8.596
4.456,8.864
4.46,8.772
4.464,8.544
4.468,8.596
4.472,8.868
4.476,8.864
4.48,8.58
4.484,8.528
4.488,8.772
4.492,8.824
4.496,8.548
4.5,8.416
4.504,8.636
4.508,8.736
4.512,8.388
4.516,8.22
4.52,8.46
4.524,8.62
4.528,8.324
4.532,8.132
4.536,8.3
4.54,8.48
4.544,8.304
4.548,8.068
4.552,8.204
4.556,8.428
4.56,8.32
4.564,8.044
4.568,8.116
4.572,8.376
4.576,8.344
4.58,8.104
4.584,8.06
4.588,8.312
4.592,8.376
4.596,8.104
4.6,7.996
4.604,8.248
4.608,8.42
4.612,8.128
4.616,7.988
4.62,8.232
4.624,8.432
4.628,8.172
4.632,8.004
4.636,8.232
4.64,8.44
4.644,8.228
4.648,8.032
4.652,8.176
4.656,8.404
4.66,8.28
4.664,8.028
4.668,8.132
4.672,8.392
4.676,8.344
4.68,8.096
4.684,8.072
4.688,8.324
4.692,8.444
4.696,8.132
4.7,8.032
4.704,8.304
4.708,8.468
4.712,8.176
4.716,8.04
4.72,8.276
4.724,8.456
4.728,8.22
4.732,8.008
4.736,8.232
4.74,8.448
4.744,8.244
4.748,8.036
4.752,8.192
4.756,8.412
4.76,8.304
4.764,8.064
4.768,8.132
4.772,8.368
4.776,8.352
4.78,8.084
4.784,8.076
4.788,8.32
4.792,8.372
4.796,8.1
4.8,8.032
4.804,8.3
4.808,8.396
4.812,8.144
4.816,8.02
4.82,8.272
4.824,8.464
4.828,8.18
4.832,8.024
4.836,8.196
4.84,8.432
4.844,8.244
4.848,8.036
4.852,8.172
4.856,8.416
4.86,8.296
4.864,8.064
4.868,8.14
4.872,8.352
4.876,8.312
4.88,8.088
4.884,8.064
4.888,8.332
4.892,8.376
4.896,8.136
4.9,7.992
4.904,8.268
4.908,8.448
4.912,8.188
4.916,8.06
4.92,8.344
4.924,8.54
4.928,8.32
4.932,8.168
4.936,8.42
4.94,8.636
4.944,8.468
4.948,8.272
4.952,8.456
4.956,8.66
4.96,8.536
4.964,8.292
4.968,8.392
4.972,8.608
4.976,8.556
4.98,8.276
4.984,8.256
4.988,8.54
4.992,8.544
4.996,8.216
5,8.084
5.004,8.32
5.008,8.448
5.012,8.148
5.016,7.984
5.02,8.252
5.024,8.412
5.028,8.152
5.032,7.948
5.036,8.208
5.04,8.424
5.044,8.188
5.048,7.972
5.052,8.144
5.056,8.396
5.06,8.26
5.064,8.024
5.068,8.092
5.072,8.356
5.076,8.292
5.08,7.952
5.084,7.9
5.088,8.264
5.092,8.668
5.096,8.832
5.1,9.18
5.104,9.968
5.108,10.832
5.112,11.468
5.116,11.472
5.12,10.492
5.124,9.456
5.128,8.608
5.132,8.252
5.136,8.448
5.14,8.672
5.144,8.464
5.148,8.156
5.152,8.272
5.156,8.432
5.16,8.328
5.164,8.092
5.168,8.144
5.172,8.36
5.176,8.392
5.18,8.072
5.184,8.116
5.188,8.352
5.192,8.408
5.196,8.108
5.2,8.024
5.204,8.296
5.208,8.472
5.212,8.18
5.216,8.02
5.22,8.296
5.224,8.48
5.228,8.24
5.232,8.08
5.236,8.28
5.24,8.5
5.244,8.288
5.248,8.112
5.252,8.288
5.256,8.496
5.26,8.38
5.264,8.128
5.268,8.244
5.272,8.516
5.276,8.488
5.28,8.24
5.284,8.212
5.288,8.524
5.292,8.58
5.296,8.344
5.3,8.244
5.304,8.532
5.308,8.7
5.312,8.416
5.316,8.316
5.32,8.596
5.324,8.816
5.328,8.548
5.332,8.4
5.336,8.62
5.34,8.888
5.344,8.708
5.348,8.52
5.352,8.656
5.356,8.912
5.36,8.816
5.364,8.612
5.368,8.668
5.372,8.904
5.376,8.852
5.38,8.636
5.384,8.572
5.388,8.784
5.392,8.82
5.396,8.524
5.4,8.42
5.404,8.616
5.408,8.696
5.412,8.38
5.416,8.188
5.42,8.42
5.424,8.588
5.428,8.316
5.432,8.116
5.436,8.344
5.44,8.48
5.444,8.28
5.448,8.092
5.452,8.228
5.456,8.448
5.46,8.308
5.464,8.068
5.468,8.164
5.472,8.36
5.476,8.352
5.48,8.088
5.484,8.076
5.488,8.36
5.492,8.404
5.496,8.116
5.5,8.032
5.504,8.284
5.508,8.428
5.512,8.18
5.516,7.996
5.52,8.256
5.524,8.448
5.528,8.184
5.532,8.016
5.536,8.212
5.54,8.44
5.544,8.252
5.548,8.048
5.552,8.212
5.556,8.408
5.56,8.288
5.564,8.04
5.568,8.152
5.572,8.416
5.576,8.34
5.58,8.136
5.584,8.1
5.588,8.364
5.592,8.424
5.596,8.164
5.6,8.072
5.604,8.344
5.608,8.468
5.612,8.172
5.616,8.064
5.62,8.28
5.624,8.468
5.628,8.208
5.632,8.024
5.636,8.252
5.64,8.472
5.644,8.264
5.648,8.04
5.652,8.22
5.656,8.412
5.66,8.312
5.664,8.104
5.668,8.136
5.672,8.392
5.676,8.332
5.68,8.116
5.684,8.096
5.688,8.348
5.692,8.42
5.696,8.132
5.7,8.064
5.704,8.304
5.708,8.436
5.712,8.14
5.716,8.056
5.72,8.264
5.724,8.472
5.728,8.216
5.732,8.012
5.736,8.24
5.74,8.364
5.744,8.228
5.748,8.06
5.752,8.188
5.756,8.42
5.76,8.28
5.764,8.06
5.768,8.132
5.772,8.38
5.776,8.344
5.78,8.116
5.784,8.092
5.788,8.356
5.792,8.408
5.796,8.128
5.8,8.024
5.804,8.32
5.808,8.432
5.812,8.164
5.816,8.008
5.82,8.28
5.824,8.452
5.828,8.216
5.832,8.016
5.836,8.22
5.84,8.436
5.844,8.236
5.848,8.048
5.852,8.228
5.856,8.428
5.86,8.268
5.864,8.084
5.868,8.192
5.872,8.444
5.876,8.456
5.88,8.192
5.884,8.244
5.888,8.536
5.892,8.624
5.896,8.332
5.9,8.284
5.904,8.576
5.908,8.692
5.912,8.42
5.916,8.284
5.92,8.56
5.924,8.716
5.928,8.424
5.932,8.196
5.936,8.412
5.94,8.628
5.944,8.408
5.948,8.144
5.952,8.252
5.956,8.468
5.96,8.312
5.964,8.06
5.968,8.128
5.972,8.388
5.976,8.32
5.98,8.068
5.984,8.064
5.988,8.296
5.992,8.352
5.996,8.108
6,8
6.004,8.268
6.008,8.412
6.012,8.12
6.016,7.996
6.02,8.228
6.024,8.416
6.028,8.132
6.032,7.932
6.036,8.08
6.04,8.368
6.044,8.44
6.048,8.676
6.052,9.228
6.056,9.924
6.06,10.44
6.064,11.168
6.068,11.656
6.072,11.004
6.076,9.536
6.08,8.66
6.084,8.34
6.088,8.584
6.092,8.64
6.096,8.308
6.1,8.192
6.104,8.384
6.108,8.504
6.112,8.184
6.116,8.032
6.12,8.292
6.124,8.456
6.128,8.176
6.132,8.012
6.136,8.248
6.14,8.456
6.144,8.24
6.148,8.032
6.152,8.204
6.156,8.44
6.16,8.312
6.164,8.096
6.168,8.188
6.172,8.432
6.176,8.392
6.18,8.128
6.184,8.148
6.188,8.408
6.192,8.46
6.196,8.192
6.2,8.12
6.204,8.356
6.208,8.524
6.212,8.26
6.216,8.124
6.22,8.412
6.224,8.564
6.228,8.34
6.232,8.132
6.236,8.392
6.24,8.624
6.244,8.392
6.248,8.228
6.252,8.4
6.256,8.66
6.26,8.544
6.264,8.324
6.268,8.424
6.272,8.696
6.276,8.656
6.28,8.448
6.284,8.468
6.288,8.752
6.292,8.796
6.296,8.564
6.3,8.484
6.304,8.792
6.308,8.912
6.312,8.684
6.316,8.508
6.32,8.784
6.324,8.972
6.328,8.716
6.332,8.54
6.336,8.716
6.34,8.92
6.344,8.676
6.348,8.46
6.352,8.576
6.356,8.74
6.36,8.564
6.364,8.304
6.368,8.38
6.372,8.568
6.376,8.472
6.38,8.216
6.384,8.2
6.388,8.448
6.392,8.448
6.396,8.16
6.4,8.052
6.404,8.312
6.408,8.436
6.412,8.168
6.416,8.004
6.42,8.244
6.424,8.448
6.428,8.184
6.432,8.036
6.436,8.256
6.44,8.42
6.444,8.232
6.448,8
6.452,8.188
6.456,8.424
6.46,8.268
6.464,8.044
6.468,8.132
6.472,8.344
6.476,8.324
6.48,8.072
6.484,8.064
6.488,8.312
6.492,8.372
6.496,8.096
6.5,8.04
6.504,8.296
6.508,8.384
6.512,8.12
6.516,7.972
6.52,8.256
6.524,8.44
6.528,8.144
6.532,7.988
6.536,8.224
6.54,8.416
6.544,8.216
6.548,8.012
6.552,8.184
6.556,8.404
6.56,8.232
6.564,8.032
6.568,8.124
6.572,8.368
6.576,8.32
6.58,8.06
6.584,8.076
6.588,8.348
6.592,8.384
6.596,8.092
6.6,8.016
6.604,8.276
6.608,8.404
6.612,8.128
6.616,7.98
6.62,8.228
6.624,8.432
6.628,8.18
6.632,7.976
6.636,8.208
6.64,8.424
6.644,8.176
6.648,8
6.652,8.16
6.656,8.372
6.66,8.216
6.664,7.988
6.668,8.108
6.672,8.336
6.676,8.292
6.68,8.036
6.684,8.04
6.688,8.304
6.692,8.324
6.696,8.08
6.7,8.012
6.704,8.228
6.708,8.38
6.712,8.096
6.716,7.98
6.72,8.204
6.724,8.416
6.728,8.136
6.732,7.98
6.736,8.204
6.74,8.396
6.744,8.16
6.748,7.968
6.752,8.152
6.756,8.356
6.76,8.188
6.764,7.96
6.768,8.076
6.772,8.32
6.776,8.26
6.78,8.036
6.784,8.024
6.788,8.308
6.792,8.308
6.796,8.064
6.8,8.048
6.804,8.288
6.808,8.456
6.812,8.192
6.816,8.064
6.82,8.356
6.824,8.56
6.828,8.332
6.832,8.176
6.836,8.444
6.84,8.636
6.844,8.444
6.848,8.24
6.852,8.384
6.856,8.648
6.86,8.44
6.864,8.172
6.868,8.264
6.872,8.504
6.876,8.416
6.88,8.136
6.884,8.076
6.888,8.328
6.892,8.352
6.896,8.04
6.9,7.984
6.904,8.232
6.908,8.336
6.912,8.056
6.916,7.912
6.92,8.184
6.924,8.332
6.928,8.108
6.932,7.916
6.936,8.132
6.94,8.324
6.944,8.112
6.948,7.948
6.952,8.12
6.956,8.336
6.96,8.152
6.964,7.896
6.968,7.94
6.972,8.168
6.976,8.248
6.98,8.36
6.984,8.796
6.988,9.48
6.992,10.112
6.996,10.736
7,11.372
7.004,11.248
7.008,9.932
7.012,8.724
7.016,8.244
7.02,8.444
7.024,8.564
7.028,8.312
7.032,8.14
7.036,8.308
7.04,8.472
7.044,8.2
7.048,7.984
7.052,8.16
7.056,8.372
7.06,8.236
7.064,7.988
7.068,8.1
7.072,8.348
7.076,8.284
7.08,8.056
7.084,8.02
7.088,8.308
7.092,8.336
7.096,8.1
7.1,8.012
7.104,8.256
7.108,8.384
7.112,8.132
7.116,7.988
7.12,8.256
7.124,8.444
7.128,8.204
7.132,8.016
7.136,8.232
7.14,8.448
7.144,8.244
7.148,8.052
7.152,8.248
7.156,8.436
7.16,8.328
7.164,8.136
7.168,8.256
7.172,8.488
7.176,8.432
7.18,8.212
7.184,8.232
7.188,8.54
7.192,8.524
7.196,8.296
7.2,8.26
7.204,8.548
7.208,8.7
7.212,8.428
7.216,8.324
7.22,8.6
7.224,8.784
7.228,8.564
7.232,8.396
7.236,8.636
7.24,8.824
7.244,8.636
7.248,8.452
7.252,8.632
7.256,8.864
7.26,8.716
7.264,8.496
7.268,8.588
7.272,8.804
7.276,8.724
7.28,8.44
7.284,8.42
7.288,8.648
7.292,8.644
7.296,8.316
7.3,8.228
7.304,8.4
7.308,8.5
7.312,8.232
7.316,8.06
7.32,8.316
7.324,8.456
7.328,8.184
7.332,7.992
7.336,8.236
7.34,8.432
7.344,8.184
7.348,8.008
7.352,8.156
7.356,8.38
7.36,8.204
7.364,7.988
7.368,8.108
7.372,8.348
7.376,8.276
7.38,8.016
7.384,8.02
7.388,8.276
7.392,8.324
7.396,8.052
7.4,7.972
7.404,8.24
7.408,8.364
7.412,8.104
7.416,7.956
7.42,8.228
7.424,8.376
7.428,8.12
7.432,7.96
7.436,8.192
7.44,8.368
7.444,8.144
7.448,7.972
7.452,8.16
7.456,8.352
7.46,8.212
7.464,8.016
7.468,8.136
7.472,8.344
7.476,8.272
7.48,8.016
7.484,8.044
7.488,8.332
7.492,8.34
7.496,8.008
7.5,8.02
7.504,8.3
7.508,8.412
7.512,8.092
7.516,7.996
7.52,8.216
7.524,8.384
7.528,8.116
7.532,7.956
7.536,8.2
7.54,8.368
7.544,8.136
7.548,7.944
7.552,8.116
7.556,8.344
7.56,8.188
7.564,7.968
7.568,8.076
7.572,8.328
7.576,8.26
7.58,8.008
7.584,8.02
7.588,8.276
7.592,8.316
7.596,8.056
7.6,7.976
7.604,8.22
7.608,8.336
7.612,8.076
7.616,7.936
7.62,8.204
7.624,8.364
7.628,8.096
7.632,7.948
7.636,8.2
7.64,8.372
7.644,8.132
7.648,7.956
7.652,8.136
7.656,8.396
7.66,8.188
7.664,7.996
7.668,8.088
7.672,8.328
7.676,8.248
7.68,8.024
7.684,8.048
7.688,8.292
7.692,8.336
7.696,8.068
7.7,8.052
7.704,8.368
7.708,8.5
7.712,8.212
7.716,8.096
7.72,8.412
7.724,8.596
7.728,8.316
7.732,8.168
7.736,8.408
7.74,8.612
7.744,8.404
7.748,8.224
7.752,8.364
7.756,8.564
7.76,8.36
7.764,8.164
7.768,8.268
7.772,8.452
7.776,8.34
7.78,8.044
7.784,8.036
7.788,8.316
7.792,8.32
7.796,8.032
7.8,7.932
7.804,8.22
7.808,8.304
7.812,8.012
7.816,7.904
7.82,8.176
7.824,8.344
7.828,8.052
7.832,7.904
7.836,8.124
7.84,8.34
7.844,8.124
7.848,7.924
7.852,8.112
7.856,8.328
7.86,8.072
7.864,7.844
7.868,7.996
7.872,8.516
7.876,8.856
7.88,9.048
7.884,9.52
7.888,10.46
7.892,11.412
7.896,11.6
7.9,10.588
7.904,9.444
7.908,8.916
7.912,8.336
7.916,8.18
7.92,8.46
7.924,8.584
7.928,8.264
7.932,8.028
7.936,8.248
7.94,8.412
7.944,8.156
7.948,7.968
7.952,8.14
7.956,8.352
7.96,8.204
7.964,8
7.968,8.116
7.972,8.356
7.976,8.26
7.98,8.008
7.984,8.06
7.988,8.312
7.992,8.348
7.996,8.056
8,8
8.004,8.296
8.008,8.4
8.012,8.144
8.016,7.992
8.02,8.26
8.024,8.44
8.028,8.212
8.032,8
8.036,8.268
8.04,8.48
8.044,8.252
8.048,8.092
8.052,8.252
8.056,8.46
8.06,8.332
8.064,8.124
8.068,8.26
8.072,8.516
8.076,8.42
8.08,8.236
8.084,8.276
8.088,8.536
8.092,8.596
8.096,8.328
8.1,8.284
8.104,8.6
8.108,8.716
8.112,8.432
8.116,8.376
8.12,8.648
8.124,8.832
8.128,8.584
8.132,8.428
8.136,8.664
8.14,8.88
8.144,8.664
8.148,8.476
8.152,8.664
8.156,8.892
8.16,8.704
8.164,8.456
8.168,8.556
8.172,8.78
8.176,8.648
8.18,8.372
8.184,8.376
8.188,8.576
8.192,8.56
8.196,8.296
8.2,8.172
8.204,8.412
8.208,8.484
8.212,8.212
8.216,8.064
8.22,8.296
8.224,8.464
8.228,8.176
8.232,7.992
8.236,8.244
8.24,8.408
8.244,8.172
8.248,8.012
8.252,8.216
8.256,8.404
8.26,8.216
8.264,8.036
8.268,8.116
8.272,8.376
8.276,8.264
8.28,8.052
8.284,8.068
8.288,8.32
8.292,8.316
8.296,8.032
8.3,8.028
8.304,8.276
8.308,8.368
8.312,8.084
8.316,7.988
8.32,8.24
8.324,8.42
8.328,8.14
8.332,7.952
8.336,8.212
8.34,8.404
8.344,8.184
8.348,8
8.352,8.18
8.356,8.372
8.36,8.192
8.364,8.036
8.368,8.132
8.372,8.364
8.376,8.284
8.38,8.052
8.384,8.084
8.388,8.332
8.392,8.336
8.396,8.084
8.4,8.016
8.404,8.288
8.408,8.408
8.412,8.132
8.416,8
8.42,8.272
8.424,8.388
8.428,8.132
8.432,7.964
8.436,8.232
8.44,8.412
8.444,8.16
8.448,7.96
8.452,8.168
8.456,8.38
8.46,8.216
8.464,7.992
8.468,8.112
8.472,8.368
8.476,8.28
8.48,8.02
8.484,8.072
8.488,8.3
8.492,8.328
8.496,8.056
8.5,8
8.504,8.264
8.508,8.368
8.512,8.064
8.516,7.944
8.52,8.248
8.524,8.392
8.528,8.092
8.532,7.948
8.536,8.196
8.54,8.4
8.544,8.144
8.548,7.956
8.552,8.168
8.556,8.344
8.56,8.172
8.564,7.984
8.568,8.092
8.572,8.328
8.576,8.212
8.58,7.996
8.584,8.044
8.588,8.296
8.592,8.252
8.596,8.036
8.6,7.976
8.604,8.244
8.608,8.348
8.612,8.036
8.616,7.936
8.62,8.212
8.624,8.396
8.628,8.132
8.632,7.944
8.636,8.212
8.64,8.416
8.644,8.228
8.648,8.04
8.652,8.26
8.656,8.488
8.66,8.38
8.664,8.204
8.668,8.32
8.672,8.56
8.676,8.496
8.68,8.26
8.684,8.3
8.688,8.536
8.692,8.544
8.696,8.26
8.7,8.184
8.704,8.42
8.708,8.52
8.712,8.244
8.716,8.112
8.72,8.34
8.724,8.4
8.728,8.136
8.732,7.96
8.736,8.192
8.74,8.36
8.744,8.096
8.748,7.932
8.752,8.12
8.756,8.364
8.76,8.112
8.764,7.928
8.768,8.044
8.772,8.288
8.776,8.216
8.78,7.956
8.784,8.008
8.788,8.248
8.792,8.26
8.796,7.972
8.8,7.872
8.804,8.1
8.808,8.232
8.812,8.2
8.816,8.528
8.82,9.232
8.824,9.86
8.828,10.216
8.832,11.012
8.836,11.66
8.84,11.016
8.844,9.368
8.848,8.524
8.852,8.384
8.856,8.576
8.86,8.424
8.864,8.164
8.868,8.236
8.872,8.408
8.876,8.268
8.88,8.024
8.884,8.056
8.888,8.304
8.892,8.276
8.896,8.04
8.9,7.956
8.904,8.268
8.908,8.332
8.912,8.064
8.916,7.936
8.92,8.2
8.924,8.38
8.928,8.108
8.932,7.944
8.936,8.228
8.94,8.388
8.944,8.18
8.948,7.96
8.952,8.192
8.956,8.392
8.96,8.232
8.964,8.02
8.968,8.16
8.972,8.372
8.976,8.304
8.98,8.096
8.984,8.112
8.988,8.372
8.992,8.396
8.996,8.14
9,8.128
9.004,8.372
9.008,8.484
9.012,8.224
9.016,8.116
9.02,8.408
9.024,8.56
9.028,8.324
9.032,8.184
9.036,8.472
9.04,8.676
9.044,8.428
9.048,8.272
9.052,8.512
9.056,8.744
9.06,8.588
9.064,8.384
9.068,8.548
9.072,8.804
9.076,8.724
9.08,8.488
9.084,8.548
9.088,8.812
9.092,8.796
9.096,8.56
9.1,8.484
9.104,8.756
9.108,8.812
9.112,8.512
9.116,8.36
9.12,8.6
9.124,8.708
9.128,8.372
9.132,8.192
9.136,8.364
9.14,8.536
9.144,8.296
9.148,8.06
9.152,8.216
9.156,8.428
9.16,8.212
9.164,8.032
9.168,8.152
9.172,8.328
9.176,8.208
9.18,7.984
9.184,8.064
9.188,8.284
9.192,8.272
9.196,8
9.2,7.98
9.204,8.252
9.208,8.324
9.212,8.028
9.216,7.912
9.22,8.2
9.224,8.344
9.228,8.064
9.232,7.9
9.236,8.14
9.24,8.328
9.244,8.112
9.248,7.9
9.252,8.124
9.256,8.336
9.26,8.152
9.264,7.932
9.268,8.064
9.272,8.308
9.276,8.208
9.28,7.972
9.284,8.012
9.288,8.264
9.292,8.252
9.296,8.024
9.3,7.968
9.304,8.244
9.308,8.328
9.312,8.04
9.316,7.952
9.32,8.176
9.324,8.348
9.328,8.068
9.332,7.924
9.336,8.176
9.34,8.344
9.344,8.108
9.348,7.944
9.352,8.132
9.356,8.352
9.36,8.176
9.364,7.964
9.368,8.084
9.372,8.284
9.376,8.212
9.38,7.972
9.384,8.028
9.388,8.276
9.392,8.24
9.396,7.996
9.4,7.96
9.404,8.228
9.408,8.308
9.412,8
9.416,7.9
9.42,8.2
9.424,8.34
9.428,8.072
9.432,7.88
9.436,8.128
9.44,8.316
9.444,8.12
9.448,7.872
9.452,8.092
9.456,8.308
9.46,8.12
9.464,7.932
9.468,8.052
9.472,8.244
9.476,8.164
9.48,7.916
9.484,7.996
9.488,8.228
9.492,8.212
9.496,7.932
9.5,7.928
9.504,8.216
9.508,8.252
9.512,8
9.516,7.872
9.52,8.164
9.524,8.332
9.528,8.048
9.532,7.884
9.536,8.136
9.54,8.34
9.544,8.076
9.548,7.896
9.552,8.068
9.556,8.3
9.56,8.128
9.564,7.892
9.568,8.032
9.572,8.336
9.576,8.236
9.58,8.028
9.584,8.084
9.588,8.356
9.592,8.4
9.596,8.188
9.6,8.112
9.604,8.456
9.608,8.548
9.612,8.248
9.616,8.14
9.62,8.408
9.624,8.568
9.628,8.268
9.632,8.072
9.636,8.348
9.64,8.508
9.644,8.252
9.648,8.028
9.652,8.164
9.656,8.336
9.66,8.156
9.664,7.932
9.668,8.036
9.672,8.276
9.676,8.16
9.68,7.924
9.684,7.956
9.688,8.248
9.692,8.196
9.696,7.916
9.7,7.884
9.704,8.168
9.708,8.24
9.712,7.928
9.716,7.832
9.72,8.12
9.724,8.292
9.728,7.972
9.732,7.728
9.736,7.964
9.74,8.196
9.744,8.16
9.748,8.28
9.752,8.912
9.756,9.624
9.76,10.048
9.764,10.756
9.768,11.528
9.772,11.076
9.776,9.544
9.78,8.5
9.784,8.232
9.788,8.416
9.792,8.424
9.796,8.144
9.8,8.044
9.804,8.276
9.808,8.316
9.812,7.992
9.816,7.864
9.82,8.124
9.824,8.236
9.828,7.964
9.832,7.732
9.836,7.972
9.84,8.208
9.844,7.948
9.848,7.708
9.852,7.996
9.856,8.22
9.86,8.004
9.864,7.776
9.868,7.892
9.872,8.22
9.876,8.068
9.88,7.768
9.884,7.872
9.888,8.152
9.892,8.132
9.896,7.864
9.9,7.78
9.904,8.136
9.908,8.216
9.912,7.968
9.916,7.812
9.92,8.124
9.924,8.304
9.928,7.992
9.932,7.828
9.936,8.148
9.94,8.428
9.944,8.14
9.948,7.932
9.952,8.152
9.956,8.432
9.96,8.268
9.964,8.04
9.968,8.216
9.972,8.496
9.976,8.428
9.98,8.164
9.984,8.232
9.988,8.56
9.992,8.564
9.996,8.288
10,8.264
10.004,8.604
10.008,8.76
10.012,8.412
10.016,8.244
10.02,8.564
10.024,8.804
10.028,8.468
10.032,8.2
10.036,8.504
10.04,8.752
10.044,8.404
10.048,8.108
10.052,8.332
10.056,8.504
10.06,8.276
10.064,7.96
10.068,8.056
10.072,8.296
10.076,8.172
10.08,7.912
10.084,7.868
10.088,8.14
10.092,8.184
10.096,7.8
10.1,7.74
10.104,8.06
10.108,8.176
10.112,7.82
10.116,7.664
10.12,7.964
10.124,8.176
10.128,7.824
10.132,7.572
10.136,7.864
10.14,8.068
10.144,7.784
10.148,7.516
10.152,7.824
10.156,8.116
10.16,7.864
10.164,7.568
10.168,7.748
10.172,8.072
10.176,7.956
10.18,7.684
10.184,7.76
10.188,8.072
10.192,8.104
10.196,7.756
10.2,7.656
10.204,8.016
10.208,8.144
10.212,7.812
10.216,7.616
10.22,7.964
10.224,8.18
10.228,7.88
10.232,7.684
10.236,7.956
10.24,8.244
10.244,7.944
10.248,7.676
10.252,7.924
10.256,8.2
10.26,7.968
10.264,7.708
10.268,7.872
10.272,8.108
10.276,8.012
10.28,7.764
10.284,7.788
10.288,8.132
10.292,8.096
10.296,7.768
10.3,7.736
10.304,8.088
10.308,8.14
10.312,7.828
10.316,7.652
10.32,8.008
10.324,8.244
10.328,7.856
10.332,7.672
10.336,7.94
10.34,8.248
10.344,7.912
10.348,7.68
10.352,7.908
10.356,8.192
10.36,8.004
10.364,7.688
10.368,7.884
10.372,8.184
10.376,8.08
10.38,7.768
10.384,7.852
10.388,8.18
10.392,8.148
10.396,7.876
10.4,7.832
10.404,8.152
10.408,8.28
10.412,7.972
10.416,7.856
10.42,8.216
10.424,8.424
10.428,8.156
10.432,7.948
10.436,8.304
10.44,8.488
10.444,8.192
10.448,7.98
10.452,8.208
10.456,8.52
10.46,8.196
10.464,7.94
10.468,8.072
10.472,8.408
10.476,8.224
10.48,7.884
10.484,7.884
10.488,8.156
10.492,8.148
10.496,7.796
10.5,7.784
10.504,8.044
10.508,8.152
10.512,7.844
10.516,7.684
10.52,7.968
10.524,8.184
10.528,7.864
10.532,7.624
10.536,7.98
10.54,8.204
10.544,7.924
10.548,7.724
10.552,7.928
10.556,8.196
10.56,7.916
10.564,7.6
10.568,7.804
10.572,8.272
10.576,8.52
10.58,8.716
10.584,9.28
10.588,10.124
10.592,11.028
10.596,11.352
10.6,10.6
10.604,9.532
10.608,8.796
10.612,8.12
10.616,7.928
10.62,8.312
10.624,8.496
10.628,8.108
10.632,7.828
10.636,8.092
10.64,8.34
10.644,8.032
10.648,7.784
10.652,8.016
10.656,8.268
10.66,8.064
10.664,7.784
10.668,7.96
10.672,8.24
10.676,8.124
10.68,7.84
10.684,7.884
10.688,8.192
10.692,8.228
10.696,7.884
10.7,7.832
10.704,8.164
10.708,8.28
10.712,7.968
10.716,7.82
10.72,8.116
10.724,8.356
10.728,8.052
10.732,7.836
10.736,8.16
10.74,8.388
10.744,8.096
10.748,7.852
10.752,8.124
10.756,8.364
10.76,8.152
10.764,7.92
10.768,8.072
10.772,8.416
10.776,8.304
10.78,8.016
10.784,8.14
10.788,8.424
10.792,8.428
10.796,8.12
10.8,8.112
10.804,8.44
10.808,8.62
10.812,8.236
10.816,8.152
10.82,8.516
10.824,8.724
10.828,8.424
10.832,8.192
10.836,8.524
10.84,8.796
10.844,8.528
10.848,8.228
10.852,8.508
10.856,8.796
10.86,8.588
10.864,8.256
10.868,8.424
10.872,8.664
10.876,8.536
10.88,8.188
10.884,8.216
10.888,8.496
10.892,8.48
10.896,8.076
10.9,8.028
10.904,8.324
10.908,8.488
10.912,8.116
10.916,7.876
10.92,8.268
10.924,8.524
10.928,8.108
10.932,7.72
10.936,8.116
10.94,8.48
10.944,8.116
10.948,7.724
10.952,7.992
10.956,8.448
10.96,8.132
10.964,7.736
10.968,7.916
10.972,8.356
10.976,8.236
10.98,7.808
10.984,7.848
10.988,8.324
10.992,8.368
10.996,7.908
11,7.76
11.004,8.192
11.008,8.46
11.012,8.012
11.016,7.664
11.02,8.128
11.024,8.496
11.028,8.048
11.032,7.68
11.036,8.036
11.04,8.484
11.044,8.096
11.048,7.708
11.052,8.028
11.056,8.472
11.06,8.196
11.064,7.78
11.068,7.948
11.072,8.416
11.076,8.324
11.08,7.836
11.084,7.848
11.088,8.336
11.092,8.384
11.096,7.916
11.1,7.748
11.104,8.24
11.108,8.492
11.112,7.956
11.116,7.664
11.12,8.156
11.124,8.572
11.128,8.072
11.132,7.668
11.136,8.064
11.14,8.54
11.144,8.164
11.148,7.656
11.152,7.952
11.156,8.464
11.16,8.228
11.164,7.736
11.168,7.88
11.172,8.392
11.176,8.292
11.18,7.8
11.184,7.78
11.188,8.284
11.192,8.424
11.196,7.868
11.2,7.712
11.204,8.184
11.208,8.512
11.212,7.992
11.216,7.612
11.22,8.132
11.224,8.568
11.228,8.084
11.232,7.672
11.236,8.136
11.24,8.656
11.244,8.268
11.248,7.804
11.252,8.164
11.256,8.696
11.26,8.476
11.264,7.912
11.268,8.136
11.272,8.668
11.276,8.548
11.28,8.02
11.284,8.048
11.288,8.568
11.292,8.676
11.296,8.056
11.3,7.84
11.304,8.388
11.308,8.62
11.312,8.016
11.316,7.644
11.32,8.132
11.324,8.58
11.328,8.068
11.332,7.588
11.336,7.996
11.34,8.496
11.344,8.084
11.348,7.58
11.352,7.868
11.356,8.456
11.36,8.18
11.364,7.624
11.368,7.848
11.372,8.368
11.376,8.28
11.38,7.76
11.384,7.772
11.388,8.248
11.392,8.32
11.396,7.764
11.4,7.592
11.404,8.428
11.408,9.112
11.412,9.008
11.416,9.18
11.42,10.292
11.424,11.628
11.428,11.548
11.432,10.108
11.436,9.188
11.44,9.104
11.444,8.38
11.448,7.848
11.452,8.184
11.456,8.672
11.46,8.376
11.464,7.752
11.468,7.924
11.472,8.424
11.476,8.292
11.48,7.756
11.484,7.756
11.488,8.3
11.492,8.436
11.496,7.872
11.5,7.656
11.504,8.224
11.508,8.532
11.512,7.936
11.516,7.612
11.52,8.14
11.524,8.58
11.528,8.076
11.532,7.576
11.536,8.056
11.54,8.592
11.544,8.168
11.548,7.704
11.552,8.036
11.556,8.564
11.56,8.288
11.564,7.776
11.568,7.976
11.572,8.556
11.576,8.404
11.58,7.864
11.584,7.92
11.588,8.436
11.592,8.548
11.596,8.024
11.6,7.864
11.604,8.416
11.608,8.744
11.612,8.192
11.616,7.796
11.62,8.328
11.624,8.86
11.628,8.38
11.632,7.928
11.636,8.38
11.64,8.924
11.644,8.544
11.648,8.028
11.652,8.424
11.656,8.964
11.66,8.72
11.664,8.216
11.668,8.36
11.672,8.968
11.676,8.884
11.68,8.32
11.684,8.336
11.688,8.84
11.692,8.956
11.696,8.376
11.7,8.176
11.704,8.692
11.708,8.924
11.712,8.356
11.716,7.952
11.72,8.44
11.724,8.84
11.728,8.264
11.732,7.764
11.736,8.184
11.74,8.704
11.744,8.256
11.748,7.712
11.752,7.984
11.756,8.568
11.76,8.252
11.764,7.716
11.768,7.856
11.772,8.46
11.776,8.328
11.78,7.764
11.784,7.78
11.788,8.328
11.792,8.404
11.796,7.892
11.8,7.656
11.804,8.2
11.808,8.484
11.812,7.96
11.816,7.56
11.82,8.08
11.824,8.572
11.828,8.016
11.832,7.604
11.836,7.984
11.84,8.512
11.844,8.088
11.848,7.588
11.852,7.928
11.856,8.436
11.86,8.172
11.864,7.644
11.868,7.892
11.872,8.404
11.876,8.248
11.88,7.736
11.884,7.764
11.888,8.32
11.892,8.384
11.896,7.864
11.9,7.708
11.904,8.2
11.908,8.46
11.912,7.944
11.916,7.632
11.92,8.12
11.924,8.504
11.928,7.976
11.932,7.592
11.936,8.02
11.94,8.504
11.944,8.112
11.948,7.632
11.952,7.932
11.956,8.42
11.96,8.136
11.964,7.716
11.968,7.86
11.972,8.296
11.976,8.18
11.98,7.772
11.984,7.796
11.988,8.212
11.992,8.204
11.996,7.78
12,7.772
12.004,8.124
12.008,8.256
12.012,7.868
12.016,7.768
12.02,8.128
12.024,8.364
12.028,7.96
12.032,7.792
12.036,8.124
12.04,8.36
12.044,8.064
12.048,7.796
12.052,8.084
12.056,8.384
12.06,8.128
12.064,7.864
12.068,8.048
12.072,8.36
12.076,8.244
12.08,7.916
12.084,8.052
12.088,8.352
12.092,8.384
12.096,8.084
12.1,8.052
12.104,8.404
12.108,8.544
12.112,8.196
12.116,8.036
12.12,8.428
12.124,8.644
12.128,8.308
12.132,8.068
12.136,8.352
12.14,8.62
12.144,8.268
12.148,8.02
12.152,8.236
12.156,8.512
12.16,8.248
12.164,7.904
12.168,8.084
12.172,8.368
12.176,8.176
12.18,7.86
12.184,7.932
12.188,8.26
12.192,8.172
12.196,7.844
12.2,7.812
12.204,8.14
12.208,8.212
12.212,7.892
12.216,7.772
12.22,8.088
12.224,8.272
12.228,7.936
12.232,7.724
12.236,8.06
12.24,8.312
12.244,7.98
12.248,7.644
12.252,7.852
12.256,8.16
12.26,8.068
12.264,8.116
12.268,8.72
12.272,9.424
12.276,9.872
12.28,10.4
12.284,11.32
12.288,11.432
12.292,9.88
12.296,8.608
12.3,8.172
12.304,8.42
12.308,8.476
12.312,8.116
12.316,8.02
12.32,8.288
12.324,8.428
12.328,8.048
12.332,7.84
12.336,8.104
12.34,8.356
12.344,8.068
12.348,7.82
12.352,8.124
12.356,8.36
12.36,8.096
12.364,7.82
12.368,8.032
12.372,8.344
12.376,8.14
12.38,7.824
12.384,7.916
12.388,8.268
12.392,8.224
12.396,7.88
12.4,7.9
12.404,8.252
12.408,8.352
12.412,7.96
12.416,7.812
12.42,8.168
12.424,8.368
12.428,8.04
12.432,7.824
12.436,8.136
12.44,8.412
12.444,8.092
12.448,7.856
12.452,8.144
12.456,8.388
12.46,8.152
12.464,7.864
12.468,8.064
12.472,8.388
12.476,8.248
12.48,7.924
12.484,8.068
12.488,8.404
12.492,8.34
12.496,8.068
12.5,8.04
12.504,8.416
12.508,8.5
12.512,8.184
12.516,8.092
12.52,8.38
12.524,8.484
12.528,8.188
12.532,8.036
12.536,8.316
12.54,8.612
12.544,8.28
12.548,8.06
12.552,8.316
12.556,8.572
12.56,8.328
12.564,8.024
12.568,8.228
12.572,8.448
12.576,8.244
12.58,7.928
12.584,7.98
12.588,8.26
12.592,8.188
12.596,7.892
12.6,7.864
12.604,8.192
12.608,8.22
12.612,7.912
12.616,7.812
12.62,8.132
12.624,8.264
12.628,7.928
12.632,7.816
12.636,8.052
12.64,8.28
12.644,7.988
12.648,7.728
12.652,7.968
12.656,8.22
12.66,7.94
12.664,7.74
12.668,7.916
12.672,8.188
12.676,8.008
12.68,7.748
12.684,7.848
12.688,8.176
12.692,8.064
12.696,7.74
12.7,7.76
12.704,8.072
12.708,8.156
12.712,7.832
12.716,7.736
12.72,8.032
12.724,8.168
12.728,7.832
12.732,7.684
12.736,8
12.74,8.188
12.744,7.9
12.748,7.644
12.752,7.896
12.756,8.164
12.76,7.888
12.764,7.644
12.768,7.844
12.772,8.148
12.776,7.984
12.78,7.704
12.784,7.816
12.788,8.132
12.792,8.076
12.796,7.752
12.8,7.736
12.804,8.048
12.808,8.148
12.812,7.8
12.816,7.696
12.82,8.056
12.824,8.212
12.828,7.856
12.832,7.628
12.836,7.968
12.84,8.24
12.844,7.868
12.848,7.648
12.852,7.948
12.856,8.212
12.86,7.96
12.864,7.676
12.868,7.872
12.872,8.192
12.876,8.02
12.88,7.728
12.884,7.88
12.888,8.204
12.892,8.188
12.896,7.896
12.9,7.908
12.904,8.244
12.908,8.324
12.912,8.012
12.916,7.864
12.92,8.216
12.924,8.428
12.928,8.056
12.932,7.888
12.936,8.16
12.94,8.332
12.944,8.056
12.948,7.784
12.952,8.036
12.956,8.26
12.96,8.028
12.964,7.764
12.968,7.864
12.972,8.044
12.976,7.836
12.98,7.52
12.984,7.62
12.988,7.852
12.992,7.732
12.996,7.44
13,7.42
13.004,7.696
13.008,7.712
13.012,7.404
13.016,7.3
13.02,7.548
13.024,7.676
13.028,7.38
13.032,7.248
13.036,7.536
13.04,7.72
13.044,7.428
13.048,7.212
13.052,7.424
13.056,7.592
13.06,7.444
13.064,7.636
13.068,8.308
13.072,9.072
13.076,9.532
13.08,10.108
13.084,11.124
13.088,11.484
13.092,10.1
13.096,8.712
13.1,8.212
13.104,8.38
13.108,8.432
13.112,8.176
13.116,8.052
13.12,8.3
13.124,8.368
13.128,8.052
13.132,7.872
13.136,8.16
13.14,8.344
13.144,8.052
13.148,7.86
13.152,8.128
13.156,8.316
13.16,8.056
13.164,7.88
13.168,8.056
13.172,8.276
13.176,8.144
13.18,7.844
13.184,7.996
13.188,8.228
13.192,8.164
13.196,7.888
13.2,7.884
13.204,8.164
13.208,8.184
13.212,7.88
13.216,7.812
13.22,8.08
13.224,8.2
13.228,7.912
13.232,7.764
13.236,8.008
13.24,8.244
13.244,7.94
13.248,7.804
13.252,8.052
13.256,8.288
13.26,8.068
13.264,7.892
13.268,8.084
13.272,8.308
13.276,8.144
13.28,7.96
13.284,8.124
13.288,8.384
13.292,8.336
13.296,8.1
13.3,8.152
13.304,8.452
13.308,8.484
13.312,8.248
13.316,8.224
13.32,8.508
13.324,8.644
13.328,8.368
13.332,8.264
13.336,8.54
13.34,8.716
13.344,8.444
13.348,8.268
13.352,8.524
13.356,8.708
13.36,8.392
13.364,8.212
13.368,8.348
13.372,8.528
13.376,8.364
13.38,8.104
13.384,8.16
13.388,8.368
13.392,8.272
13.396,7.964
13.4,7.988
13.404,8.164
13.408,8.204
13.412,7.928
13.416,7.824
13.42,8.12
13.424,8.212
13.428,7.904
13.432,7.768
13.436,8.044
13.44,8.196
13.444,7.932
13.448,7.764
13.452,7.988
13.456,8.2
13.46,7.984
13.464,7.784
13.468,7.968
13.472,8.16
13.476,7.976
13.48,7.8
13.484,7.912
13.488,8.144
13.492,8.08
13.496,7.824
13.5,7.872
13.504,8.124
13.508,8.156
13.512,7.856
13.516,7.804
13.52,8.092
13.524,8.192
13.528,7.936
13.532,7.808
13.536,8.048
13.54,8.2
13.544,7.972
13.548,7.836
13.552,8.088
13.556,8.432
13.56,7.976
13.564,7.588
13.568,7.584
13.572,8.624
13.576,8.04
13.58,7.812
13.584,7.836
13.588,8.068
13.592,8.024
13.596,7.768
13.6,7.816
13.604,8.016
13.608,7.704
13.612,7.68
13.616,7.808
13.62,8.072
13.624,7.964
13.628,7.684
13.632,7.648
13.636,7.916
13.64,8.06
13.644,7.844
13.648,7.676
13.652,7.84
13.656,7.948
13.66,7.724
13.664,7.596
13.668,7.812
13.672,7.968
13.676,7.828
13.68,7.628
13.684,7.796
13.688,8.012
13.692,7.96
13.696,7.824
13.7,7.876
13.704,8.112
13.708,8.1
13.712,7.912
13.716,7.936
13.72,8.164
13.724,8.192
13.728,7.964
13.732,7.848
13.736,8.096
13.74,8.188
13.744,7.956
13.748,7.816
13.752,8.032
13.756,8.176
13.76,7.996
13.764,7.836
13.768,7.96
13.772,8.044
13.776,7.868
13.78,7.732
13.784,7.856
13.788,8
13.792,7.908
13.796,7.748
13.8,7.804
13.804,8.016
13.808,7.972
13.812,7.756
13.816,7.78
13.82,7.948
13.824,8
13.828,7.836
13.832,7.776
13.836,8
13.84,8.048
13.844,7.852
13.848,7.768
13.852,7.86
13.856,7.932
13.86,7.848
13.864,8.064
13.868,8.708
13.872,9.284
13.876,9.684
13.88,10.28
13.884,11.3
13.888,11.716
13.892,10.452
13.896,8.944
13.9,8.384
13.904,8.336
13.908,8.32
13.912,8.144
13.916,8.112
13.92,8.244
13.924,8.204
13.928,7.98
13.932,7.928
13.936,8.092
13.94,8.168
13.944,7.948
13.948,7.86
13.952,8.052
13.956,8.156
13.96,7.984
13.964,7.88
13.968,8.02
13.972,8.16
13.976,8.016
13.98,7.904
13.984,7.988
13.988,8.148
13.992,8.064
13.996,7.908
14,7.984
14.004,8.156
14.008,8.104
14.012,7.968
14.016,7.972
14.02,8.168
14.024,8.192
14.028,8.016
14.032,7.976
14.036,8.172
14.04,8.252
14.044,8.076
14.048,7.992
14.052,8.184
14.056,8.272
14.06,8.144
14.064,8.06
14.068,8.184
14.072,8.328
14.076,8.232
14.08,8.136
14.084,8.256
14.088,8.42
14.092,8.344
14.096,8.212
14.1,8.308
14.104,8.464
14.108,8.484
14.112,8.348
14.116,8.356
14.12,8.568
14.124,8.596
14.128,8.408
14.132,8.392
14.136,8.572
14.14,8.656
14.144,8.472
14.148,8.408
14.152,8.548
14.156,8.632
14.16,8.428
14.164,8.32
14.168,8.44
14.172,8.496
14.176,8.34
14.18,8.156
14.184,8.216
14.188,8.324
14.192,8.208
14.196,8.016
14.2,8.084
14.204,8.216
14.208,8.128
14.212,7.98
14.216,7.956
14.22,8.124
14.224,8.14
14.228,7.936
14.232,7.892
14.236,8.088
14.24,8.14
14.244,7.964
14.248,7.876
14.252,8.056
14.256,8.14
14.26,7.992
14.264,7.888
14.268,8.004
14.272,8.088
14.276,7.976
14.28,7.832
14.284,7.948
14.288,8.088
14.292,7.992
14.296,7.86
14.3,7.92
14.304,8.084
14.308,8.052
14.312,7.884
14.316,7.9
14.32,8.064
14.324,8.068
14.328,7.892
14.332,7.852
14.336,8.048
14.34,8.136
14.344,7.928
14.348,7.832
14.352,8.036
14.356,8.128
14.36,7.948
14.364,7.828
14.368,7.996
14.372,8.12
14.376,7.976
14.38,7.844
14.384,7.972
14.388,8.116
14.392,8.008
14.396,7.848
14.4,7.912
14.404,8.084
14.408,8.072
14.412,7.876
14.416,7.86
14.42,8.052
14.424,8.064
14.428,7.876
14.432,7.828
14.436,8.02
14.44,8.092
14.444,7.916
14.448,7.808
14.452,8.024
14.456,8.112
14.46,7.892
14.464,7.82
14.468,7.984
14.472,8.108
14.476,7.964
14.48,7.82
14.484,7.932
14.488,8.088
14.492,8.008
14.496,7.852
14.5,7.92
14.504,8.104
14.508,8.116
14.512,7.948
14.516,7.996
14.52,8.192
14.524,8.22
14.528,8.064
14.532,8.048
14.536,8.26
14.54,8.328
14.544,8.148
14.548,8.04
14.552,8.252
14.556,8.392
14.56,8.172
14.564,8.008
14.568,8.156
14.572,8.312
14.576,8.14
14.58,7.972
14.584,8.08
14.588,8.212
14.592,8.016
14.596,7.84
14.6,7.896
14.604,8.068
14.608,8.032
14.612,7.796
14.616,7.792
14.62,8.032
14.624,8.056
14.628,7.788
14.632,7.744
14.636,7.96
14.64,8.088
14.644,7.856
14.648,7.732
14.652,7.952
14.656,8.092
14.66,7.88
14.664,7.764
14.668,7.92
14.672,8.032
14.676,7.772
14.68,7.684
14.684,8.044
14.688,8.608
14.692,8.92
14.696,9.208
14.7,9.88
14.704,10.98
14.708,11.584
14.712,10.74
14.716,9.224
14.72,8.68
14.724,8.368
14.728,8.068
14.732,7.996
14.736,8.22
14.74,8.26
14.744,7.968
14.748,7.84
14.752,8.036
14.756,8.16
14.76,7.928
14.764,7.776
14.768,7.972
14.772,8.128
14.776,7.968
14.78,7.812
14.784,7.9
14.788,8.116
14.792,8.016
14.796,7.82
14.8,7.884
14.804,8.112
14.808,8.06
14.812,7.88
14.816,7.852
14.82,8.112
14.824,8.136
14.828,7.908
14.832,7.832
14.836,8.1
14.84,8.184
14.844,7.948
14.848,7.836
14.852,8.076
14.856,8.244
14.86,8.032
14.864,7.872
14.868,8.064
14.872,8.26
14.876,8.1
14.88,7.94
14.884,8.076
14.888,8.284
14.892,8.196
14.896,8.008
14.9,8.1
14.904,8.348
14.908,8.328
14.912,8.096
14.916,8.092
14.92,8.392
14.924,8.46
14.928,8.184
14.932,8.156
14.936,8.424
14.94,8.592
14.944,8.364
14.948,8.236
14.952,8.472
14.956,8.652
14.96,8.424
14.964,8.28
14.968,8.488
14.972,8.632
14.976,8.444
14.98,8.236
14.984,8.356
14.988,8.512
14.992,8.368
14.996,8.12
15,8.16
15.004,8.332
15.008,8.252
15.012,7.984
15.016,7.96
15.02,8.18
15.024,8.172
15.028,7.9
15.032,7.836
15.036,8.048
15.04,8.14
15.044,7.904
15.048,7.78
15.052,8.012
15.056,8.156
15.06,7.908
15.064,7.744
15.068,7.94
15.072,8.132
15.076,7.92
15.08,7.748
15.084,7.9
15.088,8.096
15.092,7.98
15.096,7.776
15.1,7.824
15.104,8.064
15.108,8.048
15.112,7.824
15.116,7.8
15.12,8.052
15.124,8.096
15.128,7.812
15.132,7.764
15.136,8.012
15.14,8.116
15.144,7.852
15.148,7.704
15.152,7.956
15.156,8.12
15.16,7.888
15.164,7.724
15.168,7.928
15.172,8.104
15.176,7.936
15.18,7.724
15.184,7.88
15.188,8.084
15.192,7.952
15.196,7.748
15.2,7.836
15.204,8.076
15.208,8.024
15.212,7.772
15.216,7.792
15.22,8.056
15.224,8.084
15.228,7.816
15.232,7.708
15.236,7.992
15.24,8.116
15.244,7.84
15.248,7.724
15.252,7.944
15.256,8.128
15.26,7.872
15.264,7.712
15.268,7.912
15.272,8.096
15.276,7.916
15.28,7.736
15.284,7.892
15.288,8.108
15.292,7.976
15.296,7.752
15.3,7.848
15.304,8.08
15.308,8.028
15.312,7.756
15.316,7.764
15.32,8.032
15.324,8.072
15.328,7.828
15.332,7.732
15.336,7.992
15.34,8.1
15.344,7.828
15.348,7.696
15.352,7.984
15.356,8.168
15.36,7.928
15.364,7.796
15.368,8.032
15.372,8.244
15.376,8.08
15.38,7.888
15.384,8.08
15.388,8.3
15.392,8.228
15.396,8.008
15.4,8.044
15.404,8.292
15.408,8.26
15.412,8.016
15.416,7.976
15.42,8.188
15.424,8.212
15.428,7.928
15.432,7.84
15.436,8.076
15.44,8.136
15.444,7.84
15.448,7.68
15.452,7.932
15.456,8.104
15.46,7.844
15.464,7.668
15.468,7.868
15.472,8.064
15.476,7.868
15.48,7.66
15.484,7.828
15.488,8.04
15.492,7.896
15.496,7.676
15.5,7.764
15.504,8.028
15.508,7.944
15.512,7.72
15.516,7.68
15.52,7.94
15.524,7.92
15.528,7.644
15.532,7.732
15.536,8.368
15.54,8.936
15.544,9.128
15.548,9.568
15.552,10.672
15.556,11.584
15.56,10.752
15.564,9.176
15.568,8.54
15.572,8.372
15.576,8.092
15.58,7.928
15.584,8.052
15.588,8.268
15.592,8.052
15.596,7.808
15.6,7.888
15.604,8.076
15.608,8.036
15.612,7.796
15.616,7.78
15.62,8.004
15.624,8.06
15.628,7.812
15.632,7.736
15.636,7.988
15.64,8.084
15.644,7.828
15.648,7.728
15.652,7.988
15.656,8.112
15.66,7.876
15.664,7.7
15.668,7.924
15.672,8.144
15.676,7.944
15.68,7.776
15.684,7.928
15.688,8.124
15.692,8.02
15.696,7.832
15.7,7.892
15.704,8.144
15.708,8.108
15.712,7.868
15.716,7.868
15.72,8.148
15.724,8.184
15.728,7.952
15.732,7.908
15.736,8.168
15.74,8.292
15.744,8.032
15.748,7.916
15.752,8.172
15.756,8.372
15.76,8.152
15.764,8.016
15.768,8.224
15.772,8.428
15.776,8.248
15.78,8.112
15.784,8.284
15.788,8.496
15.792,8.396
15.796,8.192
15.8,8.284
15.804,8.536
15.808,8.468
15.812,8.244
15.816,8.264
15.82,8.496
15.824,8.544
15.828,8.288
15.832,8.18
15.836,8.388
15.84,8.448
15.844,8.196
15.848,8.028
15.852,8.212
15.856,8.336
15.86,8.06
15.864,7.912
15.868,8.092
15.872,8.192
15.876,7.98
15.88,7.828
15.884,7.96
15.888,8.136
15.892,8.016
15.896,7.832
15.9,7.896
15.904,8.076
15.908,8.028
15.912,7.828
15.916,7.836
15.92,8.044
15.924,8.072
15.928,7.864
15.932,7.808
15.936,8.032
15.94,6.496
15.944,7.996
15.948,8.212
15.952,8.288
15.956,8.232
15.96,8.064
15.964,8.1
15.968,8.204
15.972,8.188
15.976,8.032
15.98,8.012
15.984,8.096
15.988,8.12
15.992,7.996
15.996,8.008
16,8.076
16.004,8.112
16.008,8.02
16.012,7.984
16.016,8.044
16.02,8.112
16.024,8.028
16.028,7.956
16.032,8.012
16.036,8.088
16.04,8.028
16.044,7.924
16.048,7.976
16.052,8.092
16.056,8.036
16.06,7.924
16.064,7.96
16.068,8.064
16.072,8.072
16.076,7.936
16.08,7.968
16.084,8.044
16.088,8.044
16.092,7.94
16.096,7.924
16.1,8.052
16.104,8.092
16.108,7.964
16.112,7.884
16.116,7.928
16.12,8.092
16.124,8.076
16.128,7.888
16.132,7.876
16.136,8.064
16.14,8.144
16.144,7.98
16.148,7.924
16.152,8.136
16.156,8.232
16.16,8.08
16.164,8.032
16.168,8.212
16.172,8.3
16.176,8.152
16.18,8.076
16.184,8.232
16.188,8.372
16.192,8.232
16.196,8.112
16.2,8.164
16.204,8.284
16.208,8.236
16.212,8.052
16.216,8.06
16.22,8.188
16.224,8.152
16.228,7.948
16.232,7.912
16.236,8.064
16.24,8.068
16.244,7.884
16.248,7.8
16.252,8.008
16.256,8.092
16.26,7.876
16.264,7.812
16.268,7.96
16.272,8.072
16.276,7.924
16.28,7.796
16.284,7.94
16.288,8.076
16.292,7.976
16.296,7.848
16.3,7.904
16.304,8.04
16.308,7.932
16.312,7.716
16.316,7.812
16.32,8.228
16.324,8.648
16.328,8.868
16.332,9.34
16.336,10.168
16.34,11.14
16.344,11.424
16.348,10.508
16.352,9.26
16.356,8.632
16.36,8.204
16.364,8.056
16.368,8.24
16.372,8.324
16.376,8.112
16.38,7.956
16.384,8.068
16.388,8.18
16.392,8.024
16.396,7.896
16.4,7.992
16.404,8.156
16.408,8.064
16.412,7.912
16.416,7.932
16.42,8.124
16.424,8.124
16.428,7.936
16.432,7.9
16.436,8.1
16.44,8.176
16.444,7.984
16.448,7.928
16.452,8.128
16.456,8.18
16.46,7.996
16.464,7.94
16.468,8.108
16.472,8.216
16.476,8.064
16.48,7.952
16.484,8.12
16.488,8.244
16.492,8.148
16.496,7.988
16.5,8.088
16.504,8.268
16.508,8.216
16.512,8.068
16.516,8.112
16.52,8.284
16.524,8.284
16.528,8.136
16.532,8.144
16.536,8.344
16.54,8.416
16.544,8.224
16.548,8.18
16.552,8.432
16.556,8.504
16.56,8.34
16.564,8.256
16.568,8.472
16.572,8.604
16.576,8.472
16.58,8.352
16.584,8.504
16.588,8.664
16.592,8.508
16.596,8.404
16.6,8.488
16.604,8.636
16.608,8.56
16.612,8.412
16.616,8.408
16.62,8.58
16.624,8.532
16.628,8.296
16.632,8.224
16.636,8.4
16.64,8.404
16.644,8.172
16.648,8.072
16.652,8.204
16.656,8.292
16.66,8.096
16.664,7.948
16.668,8.108
16.672,8.212
16.676,8.012
16.68,7.912
16.684,8.064
16.688,8.16
16.692,8.028
16.696,7.892
16.7,7.984
16.704,8.128
16.708,8.052
16.712,7.896
16.716,7.94
16.72,8.136
16.724,8.088
16.728,7.92
16.732,7.884
16.736,8.052
16.74,8.132
16.744,7.936
16.748,7.892
16.752,8.06
16.756,8.128
16.76,7.96
16.764,7.88
16.768,8.04
16.772,8.152
16.776,7.968
16.78,7.872
16.784,8.032
16.788,8.164
16.792,8.04
16.796,7.892
16.8,7.976
16.804,8.148
16.808,8.084
16.812,7.92
16.816,7.932
16.82,8.12
16.824,8.1
16.828,7.912
16.832,7.884
16.836,8.092
16.84,8.112
16.844,7.9
16.848,7.844
16.852,8.076
16.856,8.144
16.86,7.936
16.864,7.856
16.868,8.024
16.872,8.144
16.876,7.988
16.88,7.852
16.884,7.992
16.888,8.112
16.892,7.992
16.896,7.856
16.9,7.94
16.904,8.112
16.908,8.032
16.912,7.884
16.916,7.912
16.92,8.096
16.924,8.088
16.928,7.908
16.932,7.868
16.936,8.088
16.94,8.204
16.944,8.016
16.948,7.964
16.952,8.168
16.956,8.296
16.96,8.136
16.964,8.068
16.968,8.244
16.972,8.348
16.976,8.216
16.98,8.124
16.984,8.228
16.988,8.38
16.992,8.24
16.996,8.104
17,8.18
17.004,8.3
17.008,8.24
17.012,8.028
17.016,8.052
17.02,8.192
17.024,8.132
17.028,7.936
17.032,7.912
17.036,8.036
17.04,8.088
17.044,7.904
17.048,7.808
17.052,8.016
17.056,8.088
17.06,7.884
17.064,7.792
17.068,7.98
17.072,8.08
17.076,7.9
17.08,7.784
17.084,7.924
17.088,8.096
17.092,7.96
17.096,7.836
17.1,7.896
17.104,8.016
17.108,7.872
17.112,7.784
17.116,8.048
17.12,8.62
17.124,9.048
17.128,9.36
17.132,9.976
17.136,11.064
17.14,11.648
17.144,10.664
17.148,9.128
17.152,8.628
17.156,8.396
17.16,8.148
17.164,8.064
17.168,8.196
17.172,8.272
17.176,8.064
17.18,7.892
17.184,8.044
17.188,8.148
17.192,8.016
17.196,7.884
17.2,7.948
17.204,8.096
17.208,8.012
17.212,7.88
17.216,7.92
17.22,8.096
17.224,8.076
17.228,7.88
17.232,7.88
17.236,8.084
17.24,8.16
17.244,7.92
17.248,7.868
17.252,8.08
17.256,8.184
17.26,7.988
17.264,7.908
17.268,8.088
17.272,8.208
17.276,8.044
17.28,7.936
17.284,8.096
17.288,8.212
17.292,8.096
17.296,7.952
17.3,8.08
17.304,8.268
17.308,8.192
17.312,8.044
17.316,8.088
17.32,8.264
17.324,8.292
17.328,8.12
17.332,8.1
17.336,8.308
17.34,8.368
17.344,8.212
17.348,8.192
17.352,8.392
17.356,8.492
17.36,8.328
17.364,8.252
17.368,8.452
17.372,8.576
17.376,8.44
17.38,8.332
17.384,8.48
17.388,8.632
17.392,8.528
17.396,8.376
17.4,8.452
17.404,8.596
17.408,8.524
17.412,8.34
17.416,8.34
17.42,8.468
17.424,8.428
17.428,8.212
17.432,8.172
17.436,8.312
17.44,8.308
17.444,8.092
17.448,7.976
17.452,8.14
17.456,8.24
17.46,8.012
17.464,7.888
17.468,8.072
17.472,8.16
17.476,7.98
17.48,7.86
17.484,8.004
17.488,8.136
17.492,7.984
17.496,7.86
17.5,7.944
17.504,8.108
17.508,8.04
17.512,7.86
17.516,7.912
17.52,8.108
17.524,8.068
17.528,7.888
17.532,7.856
17.536,8.052
17.54,8.096
17.544,7.888
17.548,7.832
17.552,8.024
17.556,8.116
17.56,7.932
17.564,7.84
17.568,8.012
17.572,8.132
17.576,7.94
17.58,7.852
17.584,7.988
17.588,8.112
17.592,7.98
17.596,7.856
17.6,7.968
17.604,8.128
17.608,8.04
17.612,7.872
17.616,7.912
17.62,8.116
17.624,8.096
17.628,7.9
17.632,7.876
17.636,8.056
17.64,8.112
17.644,7.9
17.648,7.88
17.652,8.052
17.656,8.116
17.66,7.916
17.664,7.844
17.668,8.032
17.672,8.132
17.676,7.944
17.68,7.86
17.684,7.992
17.688,8.104
17.692,7.988
17.696,7.844
17.7,7.936
17.704,8.112
17.708,8.016
17.712,7.876
17.716,7.916
17.72,8.068
17.724,8.052
17.728,7.86
17.732,7.88
17.736,8.06
17.74,8.112
17.744,7.884
17.748,7.86
17.752,8.096
17.756,8.188
17.76,7.988
17.764,7.972
17.768,8.132
17.772,8.28
17.776,8.144
17.78,8.048
17.784,8.176
17.788,8.316
17.792,8.208
17.796,8.068
17.8,8.204
17.804,8.344
17.808,8.268
17.812,8.052
17.816,8.1
17.82,8.276
17.824,8.228
17.828,8.052
17.832,8.004
17.836,8.108
17.84,8.132
17.844,7.908
17.848,7.86
17.852,8.016
17.856,8.112
17.86,7.876
17.864,7.82
17.868,7.976
17.872,8.072
17.876,7.888
17.88,7.796
17.884,7.952
17.888,8.08
17.892,7.94
17.896,7.828
17.9,7.912
17.904,8.084
17.908,7.988
17.912,7.836
17.916,7.84
17.92,8.54
17.924,8.028
17.928,7.944
17.932,8.288
17.936,8.86
17.94,9.28
17.944,9.62
17.948,10.292
17.952,11.36
17.956,11.552
17.96,10.028
17.964,8.792
17.968,8.424
17.972,8.368
17.976,8.136
17.98,8.064
17.984,8.18
17.988,8.236
17.992,8.072
17.996,7.932
18,8.004
18.004,8.124
18.008,8.048
18.012,7.916
18.016,7.952
18.02,8.116
18.024,8.08
18.028,7.916
18.032,7.944
18.036,8.104
18.04,8.132
18.044,7.956
18.048,7.9
18.052,8.128
18.056,8.2
18.06,8
18.064,7.932
18.068,8.124
18.072,8.224
18.076,8.048
18.08,7.976
18.084,8.096
18.088,8.188
18.092,8.1
18.096,8.012
18.1,8.112
18.104,8.224
18.108,8.14
18.112,7.964
18.116,8.08
18.12,8.248
18.124,8.188
18.128,8.056
18.132,8.104
18.136,8.268
18.14,8.32
18.144,8.164
18.148,8.128
18.152,8.304
18.156,8.396
18.16,8.24
18.164,8.192
18.168,8.396
18.172,8.484
18.176,8.34
18.18,8.288
18.184,8.436
18.188,8.576
18.192,8.444
18.196,8.352
18.2,8.48
18.204,8.64
18.208,8.568
18.212,8.376
18.216,8.46
18.22,8.592
18.224,8.556
18.228,8.36
18.232,8.324
18.236,8.496
18.24,8.448
18.244,8.224
18.248,8.176
18.252,8.34
18.256,8.352
18.26,8.096
18.264,8.028
18.268,8.192
18.272,8.22
18.276,8.056
18.28,7.972
18.284,8.1
18.288,8.164
18.292,8.052
18.296,7.908
18.3,8.008
18.304,8.132
18.308,8.028
18.312,7.932
18.316,7.916
18.32,8.08
18.324,8.036
18.328,7.852
18.332,7.868
18.336,8.04
18.34,8.028
18.344,7.8
18.348,7.732
18.352,7.9
18.356,7.94
18.36,7.756
18.364,7.712
18.368,7.904
18.372,7.96
18.376,7.768
18.38,7.724
18.384,7.876
18.388,7.98
18.392,7.86
18.396,7.772
18.4,7.892
18.404,8.048
18.408,7.944
18.412,7.848
18.416,7.912
18.42,8.072
18.424,8.044
18.428,7.872
18.432,7.868
18.436,8.06
18.44,8.076
18.444,7.92
18.448,7.872
18.452,8.06
18.456,7.08
18.46,8.024
18.464,8.292
18.468,8.34
18.472,8.316
18.476,8.12
18.48,8.024
18.484,8.164
18.488,8.248
18.492,8.124
18.496,8.04
18.5,8.184
18.504,8.32
18.508,8.208
18.512,8.056
18.516,8.104
18.52,8.22
18.524,8.192
18.528,8.008
18.532,7.996
18.536,8.176
18.54,8.172
18.544,7.98
18.548,7.964
18.552,8.16
18.556,8.184
18.56,7.992
18.564,7.932
18.568,8.14
18.572,8.276
18.576,8.14
18.58,8.064
18.584,8.24
18.588,8.384
18.592,8.264
18.596,8.196
18.6,8.352
18.604,8.48
18.608,8.368
18.612,8.272
18.616,8.316
18.62,8.488
18.624,8.468
18.628,8.32
18.632,8.3
18.636,8.44
18.64,8.452
18.644,8.284
18.648,8.212
18.652,8.4
18.656,8.38
18.66,8.128
18.664,8.024
18.668,8.168
18.672,8.24
18.676,8.064
18.68,7.948
18.684,8.092
18.688,8.224
18.692,8.08
18.696,7.948
18.7,8.08
18.704,8.196
18.708,8.08
18.712,7.94
18.716,7.98
18.72,8.164
18.724,8.168
18.728,8.02
18.732,7.988
18.736,8.152
18.74,8.16
18.744,7.92
18.748,7.924
18.752,8.376
18.756,8.924
18.76,9.16
18.764,9.584
18.768,10.404
18.772,11.428
18.776,11.572
18.78,10.356
18.784,9.172
18.788,8.764
18.792,8.376
18.796,8.088
18.8,8.152
18.804,8.36
18.808,8.288
18.812,8.016
18.816,7.928
18.82,8.168
18.824,8.216
18.828,7.96
18.832,7.884
18.836,8.156
18.84,8.256
18.844,7.972
18.848,7.84
18.852,8.108
18.856,8.28
18.86,8.016
18.864,7.82
18.868,8.024
18.872,9.236
18.876,8.284
18.88,7.928
18.884,8.068
18.888,8.288
18.892,8.2
18.896,7.972
18.9,8.048
18.904,8.26
18.908,8.224
18.912,7.984
18.916,7.956
18.92,8.22
18.924,8.272
18.928,8
18.932,7.924
18.936,8.188
18.94,8.364
18.944,8.148
18.948,7.992
18.952,8.26
18.956,8.456
18.96,8.22
18.964,8.04
18.968,8.276
18.972,8.488
18.976,8.276
18.98,8.104
18.984,8.328
18.988,8.552
18.992,8.424
18.996,8.212
19,8.352
19.004,8.56
19.008,8.504
19.012,8.32
19.016,8.352
19.02,8.596
19.024,8.652
19.028,8.372
19.032,8.328
19.036,8.548
19.04,8.628
19.044,8.388
19.048,8.24
19.052,8.44
19.056,8.504
19.06,8.244
19.064,8.068
19.068,8.212
19.072,8.356
19.076,8.056
19.08,7.896
19.084,8.04
19.088,8.204
19.092,8.08
19.096,7.908
19.1,8.012
19.104,8.176
19.108,8.116
19.112,7.924
19.116,7.96
19.12,8.16
19.124,8.132
19.128,7.948
19.132,7.94
19.136,8.104
19.14,8.16
19.144,7.908
19.148,7.856
19.152,8.088
19.156,8.192
19.16,7.968
19.164,7.836
19.168,8.056
19.172,8.184
19.176,8.012
19.18,7.904
19.184,8.048
19.188,8.164
19.192,8.044
19.196,7.904
19.2,8.02
19.204,8.18
19.208,8.096
19.212,7.98
19.216,8.032
19.22,8.22
19.224,8.164
19.228,7.976
19.232,8.008
19.236,8.236
19.24,8.288
19.244,8.052
19.248,7.988
19.252,8.192
19.256,8.288
19.26,8.072
19.264,7.984
19.268,8.192
19.272,8.288
19.276,8.092
19.28,7.976
19.284,8.116
19.288,8.244
19.292,8.084
19.296,7.916
19.3,8.008
19.304,8.176
19.308,8.096
19.312,7.912
19.316,7.952
19.32,8.132
19.324,8.124
19.328,7.896
19.332,7.896
19.336,8.072
19.34,8.076
19.344,7.908
19.348,7.82
19.352,8.04
19.356,8.132
19.36,7.916
19.364,7.844
19.368,8.076
19.372,8.2
19.376,8.028
19.38,7.928
19.384,8.132
19.388,8.28
19.392,8.128
19.396,8.02
19.4,8.172
19.404,8.304
19.408,8.22
19.412,8.08
19.416,8.104
19.42,8.252
19.424,8.252
19.428,8.032
19.432,8.016
19.436,8.2
19.44,8.188
19.444,7.948
19.448,7.872
19.452,8.064
19.456,8.14
19.46,7.956
19.464,7.84
19.468,8.044
19.472,8.144
19.476,7.98
19.48,7.836
19.484,8.02
19.488,8.192
19.492,8.048
19.496,7.888
19.5,7.984
19.504,8.164
19.508,8.092
19.512,7.952
19.516,7.96
19.52,8.148
19.524,8.112
19.528,7.812
19.532,7.828
19.536,8.264
19.54,8.708
19.544,8.892
19.548,9.36
19.552,10.144
19.556,11.156
19.56,11.44
19.564,10.476
19.568,9.288
19.572,8.732
19.576,8.34
19.58,8.16
19.584,8.324
19.588,8.432
19.592,8.276
19.596,8.104
19.6,8.144
19.604,8.256
19.608,8.148
19.612,8.004
19.616,8.056
19.62,8.24
19.624,8.216
19.628,8.02
19.632,8.016
19.636,8.224
19.64,8.24
19.644,8.064
19.648,7.996
19.652,8.192
19.656,8.3
19.66,8.096
19.664,8.008
19.668,8.196
19.672,8.328
19.676,8.108
19.68,8.028
19.684,8.2
19.688,8.34
19.692,8.184
19.696,8.068
19.7,8.164
19.704,8.352
19.708,8.268
19.712,8.096
19.716,8.16
19.72,8.364
19.724,8.364
19.728,8.16
19.732,8.18
19.736,8.388
19.74,8.444
19.744,8.232
19.748,8.196
19.752,8.42
19.756,8.552
19.76,8.352
19.764,8.232
19.768,8.492
19.772,8.62
19.776,8.456
19.78,8.356
19.784,8.536
19.788,8.696
19.792,8.596
19.796,8.436
19.8,8.544
19.804,8.724
19.808,8.664
19.812,8.464
19.816,8.536
19.82,8.724
19.824,8.696
19.828,8.476
19.832,8.4
19.836,8.604
19.84,8.632
19.844,8.38
19.848,8.252
19.852,8.436
19.856,8.504
19.86,8.248
19.864,8.092
19.868,8.28
19.872,8.384
19.876,8.148
19.88,8.032
19.884,8.184
19.888,8.332
19.892,8.16
19.896,7.968
19.9,8.096
19.904,8.276
19.908,8.176
19.912,7.956
19.916,7.976
19.92,8.22
19.924,8.196
19.928,7.96
19.932,7.936
19.936,8.168
19.94,8.228
19.944,8.02
19.948,7.912
19.952,8.144
19.956,8.264
19.96,8.036
19.964,7.916
19.968,8.164
19.972,8.3
19.976,8.048
19.98,7.92
19.984,8.144
19.988,8.308
19.992,8.148
19.996,7.972
20,8.112
20.004,8.264
20.008,8.2
20.012,8.028
20.016,8.044
20.02,8.252
20.024,8.208
20.028,8.02
20.032,8.012
20.036,8.196
20.04,8.26
20.044,8
20.048,7.928
20.052,8.176
20.056,8.264
20.06,7.988
20.064,7.868
20.068,8.08
20.072,8.228
20.076,8.008
20.08,7.872
20.084,8.072
20.088,8.248
20.092,8.064
20.096,7.868
20.1,7.996
20.104,8.176
20.108,8.108
20.112,7.884
20.116,7.96
20.12,8.164
20.124,8.156
20.128,7.872
20.132,7.908
20.136,8.112
20.14,8.172
20.144,7.92
20.148,7.76
20.152,8.064
20.156,8.22
20.16,7.992
20.164,7.836
20.168,7.952
20.172,8.052
20.176,7.872
20.18,7.74
20.184,7.916
20.188,8.14
20.192,8.036
20.196,7.852
20.2,8.008
20.204,8.292
20.208,8.232
20.212,8.052
20.216,8.092
20.22,8.36
20.224,8.408
20.228,8.192
20.232,8.156
20.236,8.388
20.24,8.416
20.244,8.112
20.248,7.988
20.252,8.2
20.256,7.6
20.26,7.724
20.264,8.38
20.268,8.708
20.272,8.744
20.276,8.34
20.28,7.84
20.284,8.012
20.288,8.332
20.292,8.232
20.296,8.06
20.3,8.232
20.304,8.496
20.308,8.364
20.312,8.068
20.316,8.052
20.32,8.224
20.324,8.208
20.328,8.032
20.332,8.268
20.336,9.036
20.34,9.552
20.344,9.736
20.348,10.364
20.352,11.512
20.356,11.676
20.36,9.98
20.364,8.696
20.368,8.476
20.372,8.576
20.376,8.284
20.38,8.064
20.384,8.224
20.388,8.428
20.392,8.196
20.396,7.916
20.4,8.036
20.404,8.308
20.408,8.204
20.412,7.936
20.416,7.976
20.42,8.316
20.424,8.352
20.428,8.088
20.432,7.976
20.436,8.304
20.44,8.448
20.444,8.056
20.448,7.94
20.452,8.3
20.456,8.5
20.46,8.148
20.464,7.928
20.468,8.22
20.472,8.464
20.476,8.168
20.48,7.964
20.484,8.204
20.488,8.508
20.492,8.272
20.496,8.024
20.5,8.18
20.504,8.48
20.508,8.372
20.512,8.088
20.516,8.172
20.52,8.468
20.524,8.472
20.528,8.188
20.532,8.128
20.536,8.476
20.54,8.608
20.544,8.264
20.548,8.136
20.552,8.5
20.556,8.716
20.56,8.368
20.564,8.224
20.568,8.564
20.572,8.808
20.576,8.532
20.58,8.304
20.584,8.564
20.588,8.848
20.592,8.66
20.596,8.396
20.6,8.572
20.604,8.86
20.608,8.748
20.612,8.46
20.616,8.508
20.62,8.768
20.624,8.768
20.628,8.424
20.632,8.34
20.636,8.604
20.64,8.696
20.644,8.288
20.648,8.096
20.652,8.412
20.656,8.556
20.66,8.216
20.664,7.98
20.668,8.228
20.672,8.472
20.676,8.168
20.68,7.916
20.684,8.136
20.688,8.372
20.692,8.164
20.696,7.924
20.7,8.072
20.704,8.332
20.708,8.204
20.712,7.928
20.716,7.98
20.72,8.312
20.724,8.308
20.728,7.956
20.732,7.904
20.736,8.232
20.74,8.344
20.744,8.008
20.748,7.848
20.752,8.184
20.756,8.368
20.76,8.032
20.764,7.828
20.768,8.168
20.772,8.356
20.776,8.072
20.78,7.852
20.784,8.076
20.788,8.332
20.792,8.104
20.796,7.888
20.8,8.028
20.804,8.304
20.808,8.204
20.812,7.916
20.816,7.96
20.82,8.248
20.824,8.272
20.828,7.968
20.832,7.92
20.836,8.244
20.84,8.34
20.844,8.024
20.848,7.892
20.852,8.24
20.856,8.388
20.86,8.056
20.864,7.864
20.868,8.172
20.872,8.372
20.876,8.072
20.88,7.86
20.884,8.084
20.888,8.336
20.892,8.16
20.896,7.92
20.9,8.06
20.904,8.3
20.908,8.192
20.912,7.912
20.916,7.98
20.92,8.256
20.924,8.28
20.928,7.98
20.932,7.936
20.936,8.256
20.94,8.36
20.944,8.02
20.948,7.864
20.952,8.188
20.956,8.384
20.96,8.084
20.964,7.916
20.968,8.224
20.972,8.42
20.976,8.204
20.98,7.988
20.984,8.256
20.988,8.512
20.992,8.332
20.996,8.144
21,8.28
21.004,8.564
21.008,8.444
21.012,8.156
21.016,8.232
21.02,8.528
21.024,8.504
21.028,8.144
21.032,8.1
21.036,8.404
21.04,8.488
21.044,8.116
21.048,7.976
21.052,8.208
21.056,8.38
21.06,8.036
21.064,7.836
21.068,8.128
21.072,8.312
21.076,8.044
21.08,7.8
21.084,8.048
21.088,8.296
21.092,8.108
21.096,7.812
21.1,7.996
21.104,8.264
21.108,8.168
21.112,7.884
21.116,7.944
21.12,8.24
21.124,8.22
21.128,7.884
21.132,7.828
21.136,8.084
21.14,8.232
21.144,8.12
21.148,8.42
21.152,9.152
21.156,9.78
21.16,10.056
21.164,10.776
21.168,11.6
21.172,11.044
21.176,9.332
21.18,8.428
21.184,8.356
21.188,8.536
21.192,8.34
21.196,8.072
21.2,8.22
21.204,8.436
21.208,8.248
21.212,7.964
21.216,8.008
21.22,8.272
21.224,8.268
21.228,7.98
21.232,7.92
21.236,8.264
21.24,8.328
21.244,8.016
21.248,7.876
21.252,8.188
21.256,8.376
21.26,8.052
21.264,7.88
21.268,8.168
21.272,8.408
21.276,8.108
21.28,7.912
21.284,8.172
21.288,8.412
21.292,8.212
21.296,7.968
21.3,8.136
21.304,8.392
21.308,8.288
21.312,8.016
21.316,8.092
21.32,8.356
21.324,8.372
21.328,8.08
21.332,8.048
21.336,8.4
21.34,8.504
21.344,8.18
21.348,8.056
21.352,8.4
21.356,8.584
21.36,8.268
21.364,8.096
21.368,8.408
21.372,8.684
21.376,8.412
21.38,8.192
21.384,8.484
21.388,8.724
21.392,8.556
21.396,8.316
21.4,8.476
21.404,8.796
21.408,8.676
21.412,8.396
21.416,8.46
21.42,8.784
21.424,8.736
21.428,8.468
21.432,8.408
21.436,8.688
21.44,8.768
21.444,8.436
21.448,8.22
21.452,8.54
21.456,8.672
21.46,8.284
21.464,8.092
21.468,8.36
21.472,8.528
21.476,8.2
21.48,7.944
21.484,8.204
21.488,8.416
21.492,8.156
21.496,7.924
21.5,8.048
21.504,8.32
21.508,8.188
21.512,7.928
21.516,8.016
21.52,8.276
21.524,8.216
21.528,7.936
21.532,7.856
21.536,8.204
21.54,8.292
21.544,7.936
21.548,7.804
21.552,8.144
21.556,8.34
21.56,8.008
21.564,7.784
21.568,8.096
21.572,8.328
21.576,8.032
21.58,7.812
21.584,8.052
21.588,8.288
21.592,8.084
21.596,7.868
21.6,8
21.604,8.288
21.608,8.148
21.612,7.876
21.616,7.96
21.62,8.232
21.624,8.22
21.628,7.94
21.632,7.9
21.636,8.204
21.64,8.292
21.644,7.996
21.648,7.86
21.652,8.216
21.656,8.36
21.66,8.028
21.664,7.84
21.668,8.12
21.672,8.308
21.676,8.032
21.68,7.848
21.684,8.076
21.688,8.332
21.692,8.076
21.696,7.816
21.7,8.016
21.704,8.26
21.708,8.16
21.712,7.868
21.716,7.904
21.72,8.216
21.724,8.196
21.728,7.9
21.732,7.868
21.736,8.196
21.74,8.26
21.744,7.94
21.748,7.796
21.752,8.136
21.756,8.312
21.76,7.956
21.764,7.792
21.768,8.092
21.772,8.356
21.776,8.096
21.78,7.892
21.784,8.16
21.788,8.428
21.792,8.24
21.796,8.016
21.8,8.184
21.804,8.468
21.808,8.364
21.812,8.112
21.816,8.172
21.82,8.46
21.824,8.428
21.828,8.092
21.832,8.016
21.836,8.312
21.84,8.404
21.844,8.036
21.848,7.88
21.852,8.184
21.856,8.316
21.86,7.976
21.864,7.736
21.868,8.052
21.872,8.24
21.876,7.96
21.88,7.736
21.884,7.976
21.888,8.208
21.892,7.996
21.896,7.744
21.9,7.944
21.904,8.212
21.908,8.068
21.912,7.792
21.916,7.848
21.92,8.16
21.924,8.132
21.928,7.828
21.932,7.748
21.936,7.98
21.94,8.052
21.944,7.872
21.948,8.064
21.952,8.82
21.956,9.404
21.96,9.632
21.964,10.284
21.968,11.368
21.972,11.368
21.976,9.684
21.98,8.444
21.984,8.308
21.988,8.492
21.992,8.216
21.996,7.964
22,8.144
22.004,8.356
22.008,8.196
22.012,7.896
22.016,7.984
22.02,8.236
22.024,8.196
22.028,7.9
22.032,7.88
22.036,8.16
22.04,8.256
22.044,7.92
22.048,7.824
22.052,8.14
22.056,8.332
22.06,7.992
22.064,7.812
22.068,8.104
22.072,8.328
22.076,8.048
22.08,7.856
22.084,8.092
22.088,8.312
22.092,8.108
22.096,7.872
22.1,8.064
22.104,8.328
22.108,8.212
22.112,7.94
22.116,8.06
22.12,8.348
22.124,8.304
22.128,7.996
22.132,7.988
22.136,8.348
22.14,8.436
22.144,8.116
22.148,8
22.152,8.348
22.156,8.524
22.16,8.192
22.164,8.052
22.168,8.36
22.172,8.604
22.176,8.328
22.18,8.136
22.184,8.408
22.188,8.656
22.192,8.452
22.196,8.188
22.2,8.408
22.204,8.712
22.208,8.548
22.212,8.336
22.216,8.4
22.22,8.724
22.224,8.688
22.228,8.396
22.232,8.348
22.236,8.648
22.24,8.716
22.244,8.344
22.248,8.204
22.252,8.48
22.256,8.608
22.26,8.244
22.264,8.044
22.268,8.328
22.272,8.468
22.276,8.152
22.28,7.94
22.284,8.16
22.288,8.396
22.292,8.136
22.296,7.848
22.3,8.052
22.304,8.296
22.308,8.14
22.312,7.872
22.316,7.944
22.32,8.208
22.324,8.204
22.328,7.876
22.332,7.884
22.336,8.164
22.34,8.252
22.344,7.904
22.348,7.796
22.352,8.132
22.356,8.28
22.36,7.928
22.364,7.768
22.368,8.072
22.372,8.316
22.376,8.008
22.38,7.816
22.384,8.048
22.388,8.28
22.392,8.06
22.396,7.836
22.4,8.012
22.404,8.268
22.408,8.144
22.412,7.868
22.416,7.968
22.42,8.244
22.424,8.196
22.428,7.892
22.432,7.888
22.436,8.212
22.44,8.272
22.444,7.964
22.448,7.832
22.452,8.16
22.456,8.312
22.46,7.988
22.464,7.816
22.468,8.096
22.472,8.336
22.476,8.016
22.48,7.808
22.484,8.064
22.488,8.308
22.492,8.084
22.496,7.84
22.5,8.012
22.504,8.284
22.508,8.14
22.512,7.848
22.516,7.932
22.52,8.24
22.524,8.2
22.528,7.892
22.532,7.916
22.536,8.24
22.54,8.344
22.544,8.04
22.548,7.956
22.552,8.308
22.556,8.48
22.56,8.176
22.564,8.02
22.568,8.376
22.572,8.584
22.576,8.244
22.58,8.064
22.584,8.316
22.588,8.568
22.592,8.296
22.596,8.016
22.6,8.196
22.604,8.444
22.608,8.268
22.612,7.972
22.616,8.02
22.62,8.248
22.624,8.2
22.628,7.892
22.632,7.872
22.636,8.164
22.64,8.252
22.644,7.888
22.648,7.792
22.652,8.112
22.656,8.26
22.66,7.92
22.664,7.748
22.668,8.052
22.672,8.268
22.676,7.984
22.68,7.768
22.684,8.016
22.688,8.26
22.692,7.98
22.696,7.756
22.7,7.884
22.704,8.132
22.708,8.188
22.712,8.324
22.716,8.872
22.72,9.584
22.724,10.112
22.728,10.676
22.732,11.384
22.736,11.264
22.74,9.852
22.744,8.616
22.748,8.08
22.752,8.336
22.756,8.5
22.76,8.2
22.764,8
22.768,8.216
22.772,8.396
22.776,8.024
22.78,7.812
22.784,8.064
22.788,8.276
22.792,8.016
22.796,7.796
22.8,7.964
22.804,8.228
22.808,8.096
22.812,7.792
22.816,7.904
22.82,8.176
22.824,8.164
22.828,7.836
22.832,7.828
22.836,8.104
22.84,8.16
22.844,7.88
22.848,7.764
22.852,8.092
22.856,8.26
22.86,7.924
22.864,7.756
22.868,8.064
22.872,8.292
22.876,8.004
22.88,7.788
22.884,8.076
22.888,8.336
22.892,8.108
22.896,7.856
22.9,8.048
22.904,8.328
22.908,8.2
22.912,7.94
22.916,8.068
22.92,8.332
22.924,8.3
22.928,8.048
22.932,8.072
22.936,8.4
22.94,8.496
22.944,8.18
22.948,8.1
22.952,8.436
22.956,8.612
22.96,8.332
22.964,8.18
22.968,8.504
22.972,8.712
22.976,8.436
22.98,8.264
22.984,8.528
22.988,8.744
22.992,8.5
22.996,8.252
23,8.432
23.004,8.676
23.008,8.472
23.012,8.188
23.016,8.272
23.02,8.492
23.024,8.42
23.028,8.092
23.032,8.04
23.036,8.312
23.04,8.36
23.044,7.984
23.048,7.904
23.052,8.184
23.056,8.3
23.06,8
23.064,7.812
23.068,8.132
23.072,8.316
23.076,7.98
23.08,7.772
23.084,8.04
23.088,8.296
23.092,8.024
23.096,7.788
23.1,7.972
23.104,8.228
23.108,8.088
23.112,7.816
23.116,7.912
23.12,8.172
23.124,8.156
23.128,7.848
23.132,7.852
23.136,8.144
23.14,8.192
23.144,7.884
23.148,7.788
23.152,8.12
23.156,8.268
23.16,7.948
23.164,7.788
23.168,8.096
23.172,8.268
23.176,7.988
23.18,7.752
23.184,8.044
23.188,8.292
23.192,8.056
23.196,7.832
23.2,8.008
23.204,8.264
23.208,8.108
23.212,7.88
23.216,7.964
23.22,8.232
23.224,8.168
23.228,7.888
23.232,7.88
23.236,8.208
23.24,8.264
23.244,7.908
23.248,7.816
23.252,8.144
23.256,8.308
23.26,7.948
23.264,7.796
23.268,8.128
23.272,8.308
23.276,8.028
23.28,7.8
23.284,8.088
23.288,8.308
23.292,8.064
23.296,7.816
23.3,8.024
23.304,8.26
23.308,8.128
23.312,7.888
23.316,7.94
23.32,8.26
23.324,8.216
23.328,7.952
23.332,7.98
23.336,8.344
23.34,8.436
23.344,8.136
23.348,8.028
23.352,8.392
23.356,8.584
23.36,8.272
23.364,8.12
23.368,8.432
23.372,8.604
23.376,8.312
23.38,8.1
23.384,8.384
23.388,8.592
23.392,8.304
23.396,8.076
23.4,8.248
23.404,8.504
23.408,8.312
23.412,7.996
23.416,8.056
23.42,8.328
23.424,8.256
23.428,7.944
23.432,7.932
23.436,8.224
23.44,8.296
23.444,7.94
23.448,7.808
23.452,8.168
23.456,8.292
23.46,7.952
23.464,7.788
23.468,8.124
23.472,8.32
23.476,7.992
23.48,7.808
23.484,8.064
23.488,8.316
23.492,8.04
23.496,7.784
23.5,7.908
23.504,8.208
23.508,8.22
23.512,8.376
23.516,8.948
23.52,9.616
23.524,10.144
23.528,10.72
23.532,11.376
23.536,11.22
23.54,9.688
23.544,8.476
23.548,7.928
23.552,8.2
23.556,8.38
23.56,8.052
23.564,7.832
23.568,8.128
23.572,8.404
23.576,8.196
23.58,8.156
23.584,8.08
23.588,7.692
23.592,7.316
23.596,7.176
23.6,7.384
23.604,7.696
23.608,7.632
23.612,7.436
23.616,7.64
23.62,8.016
23.624,8.028
23.628,7.784
23.632,7.804
23.636,8.136
23.64,8.28
23.644,8
23.648,7.964
23.652,8.412
23.656,8.692
23.66,8.34
23.664,8.076
23.668,8.34
23.672,8.46
23.676,8.136
23.68,7.912
23.684,8.164
23.688,8.4
23.692,8.168
23.696,7.924
23.7,8.156
23.704,8.436
23.708,8.304
23.712,8.084
23.716,8.236
23.72,8.544
23.724,8.528
23.728,8.26
23.732,8.256
23.736,8.548
23.74,8.656
23.744,8.312
23.748,8.22
23.752,8.544
23.756,8.736
23.76,8.448
23.764,8.272
23.768,8.592
23.772,8.844
23.776,8.572
23.78,8.348
23.784,8.624
23.788,8.856
23.792,8.62
23.796,8.384
23.8,8.508
23.804,8.776
23.808,8.6
23.812,8.296
23.816,8.372
23.82,8.58
23.824,8.48
23.828,8.156
23.832,8.136
23.836,8.4
23.84,8.428
23.844,8.08
23.848,7.944
23.852,8.26
23.856,8.376
23.86,8.044
23.864,7.868
23.868,8.144
23.872,8.348
23.876,8.06
23.88,7.864
23.884,8.084
23.888,8.328
23.892,8.092
23.896,7.84
23.9,8.04
23.904,8.304
23.908,8.148
23.912,7.86
23.916,7.968
23.92,8.264
23.924,8.196
23.928,7.924
23.932,7.892
23.936,8.216
23.94,8.268
23.944,7.972
23.948,7.856
23.952,8.172
23.956,8.308
23.96,7.968
23.964,7.812
23.968,8.084
23.972,8.324
23.976,8.048
23.98,7.824
23.984,8.068
23.988,8.332
23.992,8.076
23.996,7.836
24,8.056
24.004,8.296
24.008,8.14
24.012,7.908
24.016,7.992
24.02,8.26
24.024,8.216
24.028,7.928
24.032,7.928
24.036,8.216
24.04,8.304
24.044,7.964
24.048,7.88
24.052,8.192
24.056,8.308
24.06,8.032
24.064,7.804
24.068,8.116
24.072,8.328
24.076,8.032
24.08,7.828
24.084,8.076
24.088,8.34
24.092,8.076
24.096,7.848
24.1,8.04
24.104,8.312
24.108,8.144
24.112,7.872
24.116,7.968
24.12,8.256
24.124,8.2
24.128,7.908
24.132,7.956
24.136,8.244
24.14,8.276
24.144,7.956
24.148,7.888
24.152,8.208
24.156,8.332
24.16,7.988
24.164,7.784
24.168,8.128
24.172,8.372
24.176,8.036
24.18,7.864
24.184,8.152
24.188,8.396
24.192,8.172
24.196,7.944
24.2,8.184
24.204,8.488
24.208,8.344
24.212,8.064
24.216,8.184
24.22,8.508
24.224,8.44
24.228,8.108
24.232,8.108
24.236,8.408
24.24,8.48
24.244,8.152
24.248,8.012
24.252,8.316
24.256,8.468
24.26,8.124
24.264,7.932
24.268,8.156
24.272,8.336
24.276,8.048
24.28,7.832
24.284,8.064
24.288,8.296
24.292,8.044
24.296,7.8
24.3,7.988
24.304,8.24
24.308,8.08
24.312,7.828
24.316,7.936
24.32,8.224
24.324,8.12
24.328,7.844
24.332,7.868
24.336,8.172
24.34,8.228
24.344,7.88
24.348,7.792
24.352,8.056
24.356,8.188
24.36,7.96
24.364,8.136
24.368,8.872
24.372,9.524
24.376,9.756
24.38,10.284
24.384,11.404
24.388,11.592
24.392,10.004
24.396,8.724
24.4,8.4
24.404,8.508
24.408,8.344
24.412,8.08
24.416,8.128
24.42,8.376
24.424,8.24
24.428,7.928
24.432,7.928
24.436,8.224
24.44,8.28
24.444,7.948
24.448,7.836
24.452,8.148
24.456,8.304
24.46,7.992
24.464,7.84
24.468,8.124
24.472,8.308
24.476,8.032
24.48,7.824
24.484,8.104
24.488,8.316
24.492,8.088
24.496,7.856
24.5,8.076
24.504,8.34
24.508,8.16
24.512,7.9
24.516,8.016
24.52,8.332
24.524,8.26
24.528,7.972
24.532,7.992
24.536,8.272
24.54,8.352
24.544,8.048
24.548,7.956
24.552,8.264
24.556,8.416
24.56,8.104
24.564,7.984
24.568,8.3
24.572,8.52
24.576,8.204
24.58,8.032
24.584,8.316
24.588,8.604
24.592,8.328
24.596,8.12
24.6,8.352
24.604,8.624
24.608,8.476
24.612,8.236
24.616,8.38
24.62,8.66
24.624,8.596
24.628,8.368
24.632,8.4
24.636,8.7
24.64,8.728
24.644,8.404
24.648,8.3
24.652,8.66
24.656,8.764
24.66,8.376
24.664,8.184
24.668,8.448
24.672,8.656
24.676,8.292
24.68,8.032
24.684,8.284
24.688,8.456
24.692,8.176
24.696,7.92
24.7,8.108
24.704,8.304
24.708,8.104
24.712,7.856
24.716,7.972
24.72,8.232
24.724,8.16
24.728,7.844
24.732,7.848
24.736,8.16
24.74,8.2
24.744,7.868
24.748,7.776
24.752,8.084
24.756,8.224
24.76,7.892
24.764,7.744
24.768,8.024
24.772,8.204
24.776,7.936
24.78,7.74
24.784,8.004
24.788,8.232
24.792,7.98
24.796,7.756
24.8,7.936
24.804,8.236
24.808,8.028
24.812,7.768
24.816,7.88
24.82,8.16
24.824,8.064
24.828,7.772
24.832,7.836
24.836,8.104
24.84,8.152
24.844,7.84
24.848,7.768
24.852,8.1
24.856,8.216
24.86,7.904
24.864,7.732
24.868,8.04
24.872,8.244
24.876,7.944
24.88,7.732
24.884,7.98
24.888,8.244
24.892,7.996
24.896,7.768
24.9,7.956
24.904,8.188
24.908,8.012
24.912,7.748
24.916,7.912
24.92,8.184
24.924,8.1
24.928,7.812
24.932,7.832
24.936,8.14
24.94,8.156
24.944,7.86
24.948,7.772
24.952,8.096
24.956,8.212
24.96,7.872
24.964,7.716
24.968,8.052
24.972,8.208
24.976,7.924
24.98,7.696
24.984,8.008
24.988,8.196
24.992,7.94
24.996,7.692
25,7.956
25.004,8.176
25.008,7.988
25.012,7.74
25.016,7.856
25.02,8.148
25.024,8.072
25.028,7.808
25.032,7.812
25.036,8.132
25.04,8.2
25.044,7.932
25.048,7.836
25.052,8.164
25.056,8.32
25.06,8.02
25.064,7.884
25.068,8.192
25.072,8.452
25.076,8.144
25.08,7.916
25.084,8.216
25.088,8.452
25.092,8.184
25.096,7.896
25.1,8.096
25.104,8.328
25.108,8.136
25.112,7.848
25.116,7.912
25.12,8.176
25.124,8.092
25.128,7.792
25.132,7.796
25.136,8.068
25.14,8.12
25.144,7.788
25.148,7.684
25.152,7.988
25.156,8.136
25.16,7.776
25.164,7.604
25.168,7.964
25.172,8.156
25.176,7.832
25.18,7.656
25.184,7.928
25.188,8.176
25.192,7.912
25.196,7.668
25.2,7.796
25.204,7.968
25.208,7.836
25.212,7.756
25.216,8.228
25.22,8.94
25.224,9.324
25.228,9.64
25.232,10.54
25.236,11.484
25.24,10.832
25.244,9.14
25.248,8.252
25.252,8.292
25.256,8.36
25.26,8.02
25.264,7.86
25.268,8.168
25.272,8.308
25.276,7.932
25.28,7.712
25.284,7.984
25.288,8.212
25.292,7.928
25.296,7.692
25.3,7.932
25.304,8.172
25.308,7.996
25.312,7.716
25.316,7.848
25.32,8.132
25.324,8.052
25.328,7.74
25.332,7.804
25.336,8.12
25.34,8.152
25.344,7.84
25.348,7.74
25.352,8.084
25.356,8.216
25.36,7.892
25.364,7.788
25.368,8.048
25.372,8.28
25.376,7.976
25.38,7.768
25.384,8.072
25.388,8.316
25.392,8.036
25.396,7.796
25.4,8.06
25.404,8.296
25.408,8.144
25.412,7.9
25.416,8.064
25.42,8.368
25.424,8.252
25.428,7.98
25.432,8.06
25.436,8.34
25.44,8.396
25.444,8.128
25.448,8.08
25.452,8.388
25.456,8.564
25.46,8.216
25.464,8.116
25.468,8.408
25.472,8.648
25.476,8.34
25.48,8.104
25.484,8.428
25.488,8.672
25.492,8.432
25.496,8.196
25.5,8.392
25.504,8.64
25.508,8.44
25.512,8.168
25.516,8.252
25.52,8.496
25.524,8.364
25.528,8.06
25.532,8.032
25.536,8.308
25.54,8.284
25.544,7.956
25.548,7.84
25.552,8.132
25.556,8.252
25.56,7.9
25.564,7.732
25.568,8.008
25.572,8.192
25.576,7.912
25.58,7.7
25.584,7.948
25.588,8.184
25.592,7.904
25.596,7.676
25.6,7.908
25.604,8.176
25.608,7.968
25.612,7.68
25.616,7.82
25.62,8.128
25.624,8.048
25.628,7.748
25.632,7.768
25.636,8.064
25.64,8.076
25.644,7.812
25.648,7.712
25.652,8.028
25.656,8.184
25.66,7.82
25.664,7.7
25.668,8.032
25.672,8.196
25.676,7.864
25.68,7.68
25.684,7.964
25.688,8.188
25.692,7.924
25.696,7.724
25.7,7.932
25.704,8.168
25.708,7.984
25.712,7.736
25.716,7.888
25.72,8.152
25.724,8.06
25.728,7.784
25.732,7.832
25.736,8.12
25.74,8.104
25.744,7.788
25.748,7.712
25.752,8.068
25.756,8.2
25.76,7.852
25.764,7.7
25.768,8
25.772,8.236
25.776,7.9
25.78,7.692
25.784,7.952
25.788,8.18
25.792,7.912
25.796,7.68
25.8,7.884
25.804,8.164
25.808,7.988
25.812,7.728
25.816,7.864
25.82,8.12
25.824,8.036
25.828,7.772
25.832,7.796
25.836,8.1
25.84,8.112
25.844,7.832
25.848,7.82
25.852,8.144
25.856,8.272
25.86,8.008
25.864,7.852
25.868,8.172
25.872,8.372
25.876,8.072
25.88,7.904
25.884,8.204
25.888,8.412
25.892,8.168
25.896,7.948
25.9,8.164
25.904,8.4
25.908,8.156
25.912,7.892
25.916,8.044
25.92,8.28
25.924,8.16
25.928,7.808
25.932,7.832
25.936,8.108
25.94,8.14
25.944,7.828
25.948,7.736
25.952,8.004
25.956,8.132
25.96,7.816
25.964,7.656
25.968,7.98
25.972,8.136
25.976,7.86
25.98,7.64
25.984,7.932
25.988,8.164
25.992,7.888
25.996,7.688
26,7.892
26.004,8.1
26.008,7.94
26.012,7.616
26.016,7.7
26.02,8.052
26.024,8.224
26.028,8.42
26.032,8.84
26.036,9.632
26.04,10.264
26.044,10.912
26.048,11.236
26.052,10.524
26.056,9.276
26.06,8.316
26.064,7.924
26.068,8.216
26.072,8.456
26.076,8.088
26.08,7.86
26.084,8.072
26.088,8.256
26.092,7.992
26.096,7.744
26.1,7.928
26.104,8.176
26.108,7.996
26.112,7.764
26.116,7.868
26.12,8.148
26.124,8.052
26.128,7.804
26.132,7.824
26.136,8.156
26.14,8.164
26.144,7.852
26.148,7.784
26.152,8.064
26.156,8.228
26.16,7.908
26.164,7.74
26.168,8.068
26.172,8.26
26.176,7.964
26.18,7.796
26.184,8.068
26.188,8.308
26.192,8.016
26.196,7.792
26.2,8.044
26.204,8.32
26.208,8.132
26.212,7.876
26.216,8.028
26.22,8.32
26.224,8.2
26.228,7.952
26.232,8.004
26.236,8.324
26.24,8.372
26.244,8.088
26.248,8
26.252,8.352
26.256,8.5
26.26,8.216
26.264,8.092
26.268,8.42
26.272,8.628
26.276,8.324
26.28,8.148
26.284,8.452
26.288,8.668
26.292,8.432
26.296,8.204
26.3,8.436
26.304,8.684
26.308,8.496
26.312,8.264
26.316,8.376
26.32,8.604
26.324,8.472
26.328,8.148
26.332,8.18
26.336,8.42
26.34,8.364
26.344,8.036
26.348,7.956
26.352,8.236
26.356,8.324
26.36,7.948
26.364,7.772
26.368,8.088
26.372,8.284
26.376,7.916
26.38,7.696
26.384,8.02
26.388,8.24
26.392,7.968
26.396,7.696
26.4,7.948
26.404,8.168
26.408,8.004
26.412,7.724
26.416,7.876
26.42,8.152
26.424,8.04
26.428,7.76
26.432,7.764
26.436,8.08
26.44,8.104
26.444,7.812
26.448,7.732
26.452,8.048
26.456,8.172
26.46,7.84
26.464,7.676
26.468,8.012
26.472,8.196
26.476,7.876
26.48,7.684
26.484,7.988
26.488,8.192
26.492,7.928
26.496,7.708
26.5,7.948
26.504,8.188
26.508,8.004
26.512,7.744
26.516,7.892
26.52,8.192
26.524,8.056
26.528,7.792
26.532,7.776
26.536,8.148
26.54,8.136
26.544,7.836
26.548,7.764
26.552,8.092
26.556,8.176
26.56,7.872
26.564,7.704
26.568,8.044
26.572,8.248
26.576,7.924
26.58,7.688
26.584,7.984
26.588,8.212
26.592,7.952
26.596,7.704
26.6,7.944
26.604,8.196
26.608,8.008
26.612,7.756
26.616,7.884
26.62,8.14
26.624,8.048
26.628,7.748
26.632,7.852
26.636,8.132
26.64,8.156
26.644,7.824
26.648,7.748
26.652,8.08
26.656,8.208
26.66,7.856
26.664,7.728
26.668,7.996
26.672,8.204
26.676,7.904
26.68,7.72
26.684,7.98
26.688,8.276
26.692,8.012
26.696,7.824
26.7,8.06
26.704,8.336
26.708,8.148
26.712,7.92
26.716,8.1
26.72,8.38
26.724,8.324
26.728,8.044
26.732,8.052
26.736,8.38
26.74,8.4
26.744,8.068
26.748,7.948
26.752,8.244
26.756,8.364
26.76,8.02
26.764,7.864
26.768,8.128
26.772,8.272
26.776,7.936
26.78,7.74
26.784,8.02
26.788,8.224
26.792,7.936
26.796,7.724
26.8,8.052
26.804,8.216
26.808,8
26.812,7.7
26.816,7.912
26.82,8.168
26.824,8.032
26.828,7.692
26.832,7.856
26.836,8.14
26.84,8.132
26.844,7.72
26.848,7.784
26.852,8.052
26.856,8.12
26.86,7.692
26.864,7.72
26.868,8.3
26.872,8.94
26.876,8.988
26.88,9.344
26.884,10.316
26.888,11.46
26.892,11.44
26.896,10.016
26.9,9.016
26.904,8.68
26.908,8.28
26.912,7.92
26.916,8.164
26.92,8.4
26.924,8.224
26.928,7.828
26.932,7.924
26.936,8.204
26.94,8.188
26.944,7.828
26.948,7.804
26.952,8.172
26.956,8.24
26.96,7.916
26.964,7.76
26.968,8.092
26.972,8.296
26.976,7.972
26.98,7.768
26.984,8.06
26.988,8.304
26.992,7.992
26.996,7.808
27,8.032
27.004,8.288
27.008,8.076
27.012,7.84
27.016,8.008
27.02,8.316
27.024,8.204
27.028,7.896
27.032,7.948
27.036,8.308
27.04,8.304
27.044,8.008
27.048,7.912
27.052,8.268
27.056,8.384
27.06,8.088
27.064,7.92
27.068,8.272
27.072,8.452
27.076,8.176
27.08,7.972
27.084,8.3
27.088,8.564
27.092,8.272
27.096,8.1
27.1,8.304
27.104,8.656
27.108,8.428
27.112,8.2
27.116,8.356
27.12,8.684
27.124,8.596
27.128,8.332
27.132,8.372
27.136,8.7
27.14,8.68
27.144,8.4
27.148,8.352
27.152,8.672
27.156,8.752
27.16,8.428
27.164,8.244
27.168,8.532
27.172,8.688
27.176,8.332
27.18,8.088
27.184,8.32
27.188,8.544
27.192,8.216
27.196,7.94
27.2,8.128
27.204,8.38
27.208,8.132
27.212,7.896
27.216,8
27.22,8.276
27.224,8.152
27.228,7.884
27.232,7.904
27.236,8.22
27.24,8.192
27.244,7.876
27.248,7.804
27.252,8.172
27.256,8.26
27.26,7.936
27.264,7.756
27.268,8.08
27.272,8.292
27.276,7.94
27.28,7.768
27.284,8.024
27.288,8.288
27.292,7.988
27.296,7.776
27.3,7.996
27.304,8.284
27.308,8.036
27.312,7.772
27.316,7.944
27.32,8.244
27.324,8.124
27.328,7.848
27.332,7.872
27.336,8.18
27.34,8.176
27.344,7.9
27.348,7.82
27.352,8.128
27.356,8.256
27.36,7.948
27.364,7.82
27.368,8.12
27.372,8.308
27.376,7.976
27.38,7.772
27.384,8.056
27.388,8.34
27.392,8.008
27.396,7.8
27.4,8.028
27.404,8.284
27.408,8.084
27.412,7.828
27.416,7.956
27.42,8.248
27.424,8.148
27.428,7.872
27.432,7.888
27.436,8.208
27.44,8.172
27.444,7.864
27.448,7.82
27.452,8.144
27.456,8.256
27.46,7.908
27.464,7.776
27.468,8.088
27.472,8.3
27.476,7.968
27.48,7.76
27.484,8.036
27.488,8.308
27.492,8.02
27.496,7.796
27.5,8.008
27.504,8.284
27.508,8.056
27.512,7.8
27.516,7.94
27.52,8.248
27.524,8.12
27.528,7.848
27.532,7.892
27.536,8.228
27.54,8.192
27.544,7.896
27.548,7.824
27.552,8.152
27.556,8.248
27.56,7.924
27.564,7.808
27.568,8.124
27.572,8.344
27.576,8.06
27.58,7.884
27.584,8.168
27.588,8.436
27.592,8.188
27.596,7.98
27.6,8.188
27.604,8.492
27.608,8.284
27.612,8.052
27.616,8.192
27.62,8.488
27.624,8.364
27.628,8.076
27.632,8.08
27.636,8.38
27.64,8.368
27.644,8.04
27.648,7.968
27.652,8.26
27.656,8.3
27.66,7.968
27.664,7.824
27.668,8.124
27.672,8.288
27.676,7.964
27.68,7.76
27.684,8.024
27.688,8.284
27.692,7.972
27.696,7.736
27.7,7.96
27.704,8.24
27.708,8.028
27.712,7.78
27.716,7.924
27.72,8.22
27.724,8.108
27.728,7.82
27.732,7.884
27.736,8.12
27.74,8.076
27.744,7.78
27.748,7.916
27.752,8.592
27.756,9.144
27.76,9.264
27.764,9.672
27.768,10.836
27.772,11.76
27.776,11.06
27.78,9.368
27.784,8.764
27.788,8.624
27.792,8.244
27.796,8.052
27.8,8.22
27.804,8.472
27.808,8.18
27.812,7.9
27.816,8.032
27.82,8.292
27.824,8.16
27.828,7.888
27.832,7.936
27.836,8.248
27.84,8.212
27.844,7.92
27.848,7.868
27.852,8.18
27.856,8.296
27.86,7.992
27.864,7.84
27.868,8.16
27.872,8.364
27.876,8.036
27.88,7.852
27.884,8.108
27.888,8.364
27.892,8.072
27.896,7.872
27.9,8.092
27.904,8.38
27.908,8.16
27.912,7.908
27.916,8.036
27.92,8.388
27.924,8.264
27.928,7.988
27.932,8.036
27.936,8.356
27.94,8.348
27.944,8.064
27.948,8.016
27.952,8.36
27.956,8.472
27.96,8.148
27.964,8.044
27.968,8.372
27.972,8.584
27.976,8.272
27.98,8.088
27.984,8.424
27.988,8.696
27.992,8.4
27.996,8.228
28,8.44
28.004,8.756
28.008,8.54
28.012,8.312
28.016,8.472
28.02,8.796
28.024,8.664
28.028,8.384
28.032,8.448
28.036,8.74
28.04,8.704
28.044,8.392
28.048,8.304
28.052,8.624
28.056,8.66
28.06,8.284
28.064,8.116
28.068,8.412
28.072,8.556
28.076,8.192
28.08,7.956
28.084,8.192
28.088,8.44
28.092,8.112
28.096,7.888
28.1,8.06
28.104,8.332
28.108,8.084
28.112,7.856
28.116,7.992
28.12,8.276
28.124,8.128
28.128,7.86
28.132,7.944
28.136,8.244
28.14,8.192
28.144,7.9
28.148,7.832
28.152,8.152
28.156,8.28
28.16,7.94
28.164,7.772
28.168,8.112
28.172,8.316
28.176,7.976
28.18,7.796
28.184,8.06
28.188,8.292
28.192,8
28.196,7.768
28.2,8.008
28.204,8.292
28.208,8.04
28.212,7.8
28.216,7.96
28.22,8.26
28.224,8.144
28.228,7.856
28.232,7.912
28.236,8.2
28.24,8.196
28.244,7.916
28.248,7.868
28.252,8.176
28.256,8.256
28.26,7.948
28.264,7.82
28.268,8.124
28.272,8.332
28.276,7.984
28.28,7.78
28.284,8.064
28.288,8.328
28.292,8.032
28.296,7.808
28.3,8.02
28.304,8.284
28.308,8.064
28.312,7.844
28.316,7.984
28.32,8.26
28.324,8.112
28.328,7.868
28.332,7.936
28.336,8.212
28.34,8.176
28.344,7.876
28.348,7.84
28.352,8.172
28.356,8.244
28.36,7.924
28.364,7.796
28.368,8.088
28.372,8.304
28.376,7.948
28.38,7.776
28.384,8.032
28.388,8.292
28.392,7.996
28.396,7.768
28.4,8.004
28.404,8.268
28.408,8.048
28.412,7.812
28.416,7.948
28.42,8.236
28.424,8.12
28.428,7.836
28.432,7.896
28.436,8.196
28.44,8.188
28.444,7.884
28.448,7.86
28.452,8.168
28.456,8.268
28.46,7.992
28.464,7.852
28.468,8.172
28.472,8.404
28.476,8.1
28.48,7.924
28.484,8.224
28.488,8.48
28.492,8.192
28.496,8.016
28.5,8.256
28.504,8.544
28.508,8.312
28.512,8.056
28.516,8.208
28.52,8.452
28.524,8.272
28.528,7.996
28.532,8.032
28.536,8.34
28.54,8.272
28.544,7.912
28.548,7.868
28.552,8.168
28.556,8.248
28.56,7.88
28.564,7.748
28.568,8.072
28.572,8.236
28.576,7.932
28.58,7.724
28.584,8
28.588,8.276
28.592,7.964
28.596,7.744
28.6,7.976
28.604,8.284
28.608,8.016
28.612,7.812
28.616,7.936
28.62,8.228
28.624,8.048
28.628,7.728
28.632,7.772
28.636,8.148
28.64,8.408
28.644,8.556
28.648,8.94
28.652,9.808
28.656,10.632
28.66,11.176
28.664,11.048
28.668,9.984
28.672,9.088
28.676,8.288
28.68,8.024
28.684,8.236
28.688,8.516
28.692,8.208
28.696,7.952
28.7,8.108
28.704,8.356
28.708,8.088
28.712,7.856
28.716,8.028
28.72,8.28
28.724,8.124
28.728,7.864
28.732,7.932
28.736,8.232
28.74,8.216
28.744,7.936
28.748,7.908
28.752,8.212
28.756,8.312
28.76,7.98
28.764,7.856
28.768,8.184
28.772,8.336
28.776,8.032
28.78,7.884
28.784,8.156
28.788,8.392
28.792,8.072
28.796,7.84
28.8,8.12
28.804,8.384
28.808,8.172
28.812,7.936
28.816,8.12
28.82,8.412
28.824,8.264
28.828,8.008
28.832,8.112
28.836,8.404
28.84,8.376
28.844,8.084
28.848,8.092
28.852,8.416
28.856,8.532
28.86,8.212
28.864,8.112
28.868,8.444
28.872,8.668
28.876,8.296
28.88,8.18
28.884,8.468
28.888,8.74
28.892,8.448
28.896,8.24
28.9,8.488
28.904,8.784
28.908,8.564
28.912,8.352
28.916,8.484
28.92,8.78
28.924,8.636
28.928,8.364
28.932,8.42
28.936,8.656
28.94,8.6
28.944,8.312
28.948,8.252
28.952,8.492
28.956,8.544
28.96,8.2
28.964,8.016
28.968,8.272
28.972,8.468
28.976,8.12
28.98,7.908
28.984,8.156
28.988,8.412
28.992,8.084
28.996,7.888
29,8.1
29.004,8.328
29.008,8.092
29.012,7.876
29.016,8.052
29.02,8.308
29.024,8.152
29.028,7.876
29.032,7.964
29.036,8.244
29.04,8.2
29.044,7.9
29.048,7.908
29.052,8.172
29.056,8.276
29.06,7.96
29.064,7.836
29.068,8.14
29.072,8.324
29.076,8.008
29.08,7.812
29.084,8.128
29.088,8.376
29.092,8.024
29.096,7.804
29.1,8.064
29.104,8.384
29.108,8.128
29.112,7.864
29.116,8.048
29.12,8.308
29.124,8.188
29.128,7.94
29.132,8.016
29.136,8.292
29.14,8.26
29.144,7.964
29.148,7.936
29.152,8.248
29.156,8.316
29.16,7.988
29.164,7.9
29.168,8.192
29.172,8.372
29.176,8.02
29.18,7.86
29.184,8.104
29.188,8.364
29.192,8.056
29.196,7.86
29.2,8.096
29.204,8.34
29.208,8.112
29.212,7.884
29.216,8.056
29.22,8.328
29.224,8.168
29.228,7.872
29.232,8.008
29.236,8.296
29.24,8.22
29.244,7.916
29.248,7.924
29.252,8.216
29.256,8.332
29.26,7.988
29.264,7.844
29.268,8.148
29.272,8.34
29.276,8.012
29.28,7.824
29.284,8.108
29.288,8.36
29.292,8.048
29.296,7.86
29.3,8.108
29.304,8.404
29.308,8.2
29.312,7.976
29.316,8.18
29.32,8.46
29.324,8.328
29.328,8.052
29.332,8.172
29.336,8.468
29.34,8.436
29.344,8.172
29.348,8.128
29.352,8.412
29.356,8.456
29.36,8.136
29.364,7.996
29.368,8.288
29.372,8.452
29.376,8.14
29.38,7.924
29.384,8.136
29.388,8.36
29.392,8.024
29.396,7.812
29.4,8.048
29.404,8.288
29.408,8.06
29.412,7.844
29.416,8.004
29.42,8.272
29.424,8.104
29.428,7.84
29.432,7.952
29.436,8.192
29.44,8.156
29.444,7.864
29.448,7.904
29.452,8.176
29.456,8.244
29.46,7.92
29.464,7.776
29.468,8.016
29.472,8.268
29.476,8.164
29.48,8.428
29.484,9.092
29.488,9.836
29.492,10.132
29.496,10.828
29.5,11.576
29.504,11.04
29.508,9.36
29.512,8.436
29.516,8.312
29.52,8.516
29.524,8.408
29.528,8.1
29.532,8.164
29.536,8.388
29.54,8.316
29.544,7.996
29.548,7.976
29.552,8.244
29.556,8.328
29.56,8.016
29.564,7.908
29.568,8.188
29.572,8.372
29.576,8.048
29.58,7.892
29.584,8.148
29.588,8.4
29.592,8.092
29.596,7.888
29.6,8.148
29.604,8.4
29.608,8.168
29.612,7.932
29.616,8.144
29.62,8.412
29.624,8.256
29.628,7.984
29.632,8.108
29.636,8.36
29.64,8.336
29.644,8.068
29.648,8.072
29.652,8.36
29.656,8.452
29.66,8.128
29.664,8.052
29.668,8.324
29.672,8.52
29.676,8.212
29.68,8.068
29.684,8.348
29.688,8.624
29.692,8.292
29.696,8.124
29.7,8.368
29.704,8.664
29.708,8.44
29.712,8.22
29.716,8.436
29.72,8.688
29.724,8.596
29.728,8.352
29.732,8.484
29.736,8.752
29.74,8.744
29.744,8.452
29.748,8.456
29.752,8.732
29.756,8.836
29.76,8.512
29.764,8.4
29.768,8.692
29.772,8.824
29.776,8.472
29.78,8.26
29.784,8.5
29.788,8.708
29.792,8.36
29.796,8.116
29.8,8.316
29.804,8.504
29.808,8.236
29.812,7.988
29.816,8.152
29.82,8.388
29.824,8.216
29.828,7.948
29.832,8.044
29.836,8.3
29.84,8.236
29.844,7.936
29.848,7.92
29.852,8.236
29.856,8.288
29.86,7.984
29.864,7.868
29.868,8.192
29.872,8.304
29.876,8.004
29.88,7.844
29.884,8.148
29.888,8.312
29.892,8.028
29.896,7.844
29.9,8.12
29.904,8.336
29.908,8.076
29.912,7.848
29.916,8.064
29.92,8.312
29.924,8.128
29.928,7.888
29.932,8
29.936,8.256
29.94,8.204
29.944,7.96
29.948,7.94
29.952,8.256
29.956,8.292
29.96,7.98
29.964,7.9
29.968,8.22
29.972,8.368
29.976,8.032
29.98,7.876
29.984,8.184
29.988,8.396
29.992,8.076
29.996,7.86
30,8.156
30.004,8.372
30.008,8.136
30.012,7.916
30.016,8.088
30.02,8.312
30.024,8.188
30.028,7.944
30.032,8.072
30.036,8.296
30.04,8.216
30.044,7.928
30.048,7.952
30.052,8.256
30.056,8.288
30.06,7.976
30.064,7.884
30.068,8.192
30.072,8.364
30.076,8.024
30.08,7.864
30.084,8.152
30.088,8.376
30.092,8.08
30.096,7.872
30.1,8.144
30.104,8.336
30.108,8.108
30.112,7.896
30.116,8.124
30.12,8.388
30.124,8.32
30.128,7.804
30.132,7.864
30.136,8.36
30.14,8.232
30.144,7.856
30.148,7.78
30.152,8.048
30.156,8.096
30.16,7.844
30.164,7.792
30.168,8.192
30.172,8.352
30.176,8.056
30.18,7.88
30.184,8.172
30.188,8.384
30.192,8.156
30.196,7.756
30.2,8.116
30.204,8.484
30.208,8.248
30.212,8.008
30.216,8.18
30.22,8.404
30.224,8.156
30.228,7.86
30.232,7.96
30.236,8.216
30.24,8.132
30.244,7.828
30.248,7.828
30.252,8.068
30.256,8.052
30.26,7.736
30.264,7.668
30.268,7.98
30.272,8.112
30.276,7.764
30.28,7.612
30.284,7.936
30.288,8.128
30.292,7.824
30.296,7.64
30.3,7.92
30.304,8.152
30.308,7.912
30.312,7.708
30.316,7.928
30.32,8.156
30.324,7.96
30.328,7.7
30.332,7.788
30.336,7.996
30.34,7.952
30.344,7.876
30.348,8.32
30.352,9.032
30.356,9.536
30.36,9.812
30.364,10.636
30.368,11.56
30.372,11.136
30.376,9.252
30.38,8.34
30.384,8.288
30.388,8.416
30.392,8.088
30.396,7.872
30.4,8.048
30.404,8.216
30.408,7.896
30.412,7.644
30.416,7.844
30.42,8.052
30.424,7.868
30.428,7.616
30.432,7.74
30.436,8.028
30.44,7.924
30.444,7.656
30.448,7.664
30.452,7.944
30.456,7.968
30.46,7.66
30.464,7.588
30.468,7.92
30.472,8.056
30.476,7.744
30.48,7.616
30.484,7.936
30.488,8.164
30.492,7.844
30.496,7.708
30.5,8.008
30.504,8.236
30.508,7.984
30.512,7.8
30.516,8.028
30.52,8.276
30.524,8.124
30.528,7.888
30.532,8.048
30.536,8.336
30.54,8.26
30.544,8.004
30.548,8.056
30.552,8.364
30.556,8.42
30.56,8.096
30.564,8.056
30.568,8.4
30.572,8.548
30.576,8.256
30.58,8.144
30.584,8.5
30.588,8.688
30.592,8.404
30.596,8.208
30.6,8.532
30.604,8.788
30.608,8.524
30.612,8.328
30.616,8.564
30.62,8.824
30.624,8.64
30.628,8.408
30.632,8.54
30.636,8.776
30.64,8.636
30.644,8.344
30.648,8.352
30.652,8.608
30.656,8.564
30.66,8.22
30.664,8.116
30.668,8.392
30.672,8.484
30.676,8.124
30.68,7.952
30.684,8.196
30.688,8.36
30.692,8.052
30.696,7.864
30.7,8.084
30.704,8.3
30.708,8.024
30.712,7.808
30.716,8.056
30.72,8.26
30.724,8.076
30.728,7.78
30.732,8.032
30.736,8.236
30.74,8.156
30.744,7.844
30.748,8.004
30.752,8.156
30.756,8.212
30.76,7.912
30.764,7.996
30.768,8.076
30.772,8.268
30.776,7.94
30.78,7.94
30.784,8.072
30.788,8.304
30.792,7.988
30.796,7.824
30.8,8.08
30.804,8.312
30.808,8.06
30.812,7.788
30.816,8.06
30.82,8.296
30.824,8.132
30.828,7.824
30.832,8.092
30.836,8.236
30.84,8.192
30.844,7.892
30.848,8.1
30.852,8.192
30.856,8.252
30.86,7.94
30.864,8.044
30.868,8.152
30.872,8.332
30.876,7.996
30.88,7.936
30.884,8.108
30.888,8.364
30.892,8.048
30.896,7.86
30.9,8.112
30.904,8.332
30.908,8.068
30.912,7.844
30.916,8.1
30.92,8.3
30.924,8.116
30.928,7.844
30.932,8.124
30.936,8.24
30.94,8.168
30.944,7.876
30.948,8.088
30.952,8.208
30.956,8.248
30.96,7.916
30.964,8
30.968,8.132
30.972,8.34
30.976,8.004
30.98,7.936
30.984,8.176
30.988,8.392
30.992,8.08
30.996,7.896
31,8.2
31.004,8.364
31.008,8.088
31.012,7.84
31.016,8.156
31.02,8.34
31.024,8.144
31.028,7.852
31.032,8.148
31.036,8.26
31.04,8.188
31.044,7.916
31.048,8.116
31.052,8.22
31.056,8.288
31.06,8.016
31.064,8.128
31.068,8.296
31.072,8.44
31.076,8.148
31.08,8.072
31.084,8.32
31.088,8.532
31.092,8.244
31.096,8.068
31.1,8.376
31.104,8.58
31.108,8.332
31.112,8.036
31.116,8.328
31.12,8.46
31.124,8.272
31.128,8.032
31.132,8.288
31.136,8.38
31.14,8.26
31.144,7.956
31.148,8.152
31.152,8.26
31.156,8.3
31.16,7.98
31.164,8.004
31.168,8.16
31.172,8.304
31.176,7.984
31.18,7.88
31.184,8.112
31.188,8.32
31.192,8.012
31.196,7.8
31.2,8.128
31.204,8.32
31.208,8.032
31.212,7.78
31.216,8.128
31.22,8.244
31.224,7.992
31.228,7.7
31.232,8.136
31.236,8.596
31.24,8.988
31.244,9.092
31.248,9.808
31.252,10.696
31.256,11.596
31.26,11.264
31.264,9.892
31.268,9.024
31.272,8.72
31.276,8.244
31.28,8.136
31.284,8.396
31.288,8.536
31.292,8.168
31.296,7.92
31.3,8.22
31.304,8.38
31.308,8.108
31.312,7.84
31.316,8.188
31.32,8.34
31.324,8.156
31.328,7.86
31.332,8.18
31.336,8.26
31.34,8.192
31.344,7.936
31.348,8.108
31.352,8.216
31.356,8.304
31.36,8.008
31.364,8.052
31.368,8.212
31.372,8.364
31.376,8.032
31.38,7.92
31.384,8.208
31.388,8.404
31.392,8.1
31.396,7.896
31.4,8.224
31.404,8.424
31.408,8.176
31.412,7.924
31.416,8.288
31.42,8.412
31.424,8.236
31.428,7.988
31.432,8.304
31.436,8.392
31.44,8.352
31.444,8.088
31.448,8.284
31.452,8.448
31.456,8.5
31.46,8.212
31.464,8.264
31.468,8.5
31.472,8.652
31.476,8.328
31.48,8.236
31.484,8.56
31.488,8.776
31.492,8.464
31.496,8.28
31.5,8.624
31.504,8.808
31.508,8.568
31.512,8.316
31.516,8.672
31.52,8.768
31.524,8.58
31.528,8.3
31.532,8.58
31.536,8.652
31.54,8.536
31.544,8.2
31.548,8.352
31.552,8.464
31.556,8.456
31.56,8.088
31.564,8.088
31.568,8.248
31.572,8.376
31.576,8.032
31.58,7.856
31.584,8.152
31.588,8.3
31.592,7.996
31.596,7.756
31.6,8.108
31.604,8.268
31.608,7.992
31.612,7.744
31.616,8.124
31.62,8.22
31.624,8.056
31.628,7.784
31.632,8.076
31.636,8.152
31.64,8.124
31.644,7.828
31.648,7.992
31.652,8.136
31.656,8.192
31.66,7.884
31.664,7.856
31.668,8.116
31.672,8.216
31.676,7.888
31.68,7.78
31.684,8.104
31.688,8.26
31.692,7.92
31.696,7.708
31.7,8.108
31.704,8.264
31.708,7.984
31.712,7.728
31.716,8.084
31.72,8.208
31.724,8.036
31.728,7.804
31.732,8.096
31.736,8.168
31.74,8.096
31.744,7.84
31.748,7.992
31.752,8.14
31.756,8.18
31.76,7.868
31.764,7.888
31.768,8.112
31.772,8.24
31.776,7.9
31.78,7.744
31.784,8.1
31.788,8.272
31.792,7.94
31.796,7.712
31.8,8.088
31.804,8.216
31.808,7.96
31.812,7.696
31.816,8.084
31.82,8.2
31.824,8.016
31.828,7.74
31.832,8.048
31.836,8.14
31.84,8.08
31.844,7.796
31.848,7.948
31.852,8.108
31.856,8.144
31.86,7.844
31.864,7.82
31.868,8.076
31.872,8.184
31.876,7.9
31.88,7.728
31.884,8.076
31.888,8.212
31.892,7.892
31.896,7.68
31.9,8.104
31.904,8.204
31.908,7.94
31.912,7.704
31.916,8.092
31.92,8.208
31.924,8.004
31.928,7.744
31.932,8.024
31.936,8.136
31.94,8.076
31.944,7.804
31.948,7.932
31.952,8.108
31.956,8.14
31.96,7.852
31.964,7.804
31.968,8.116
31.972,8.248
31.976,7.936
31.98,7.812
31.984,8.196
31.988,8.364
31.992,8.048
31.996,7.844
32,8.256
32.004,8.456
32.008,8.192
32.012,7.94
32.016,8.316
32.02,8.404
32.024,8.192
32.028,7.924
32.032,8.208
32.036,8.288
32.04,8.196
32.044,7.928
32.048,8.024
32.052,8.152
32.056,8.16
32.06,7.824
32.064,7.78
32.068,8.068
32.072,8.176
32.076,7.828
32.08,7.672
32.084,8.056
32.088,8.168
32.092,7.864
32.096,7.672
32.1,8.064
32.104,8.164
32.108,7.904
32.112,7.696
32.116,8.08
32.12,8.152
32.124,7.956
32.128,7.684
32.132,7.94
32.136,7.996
32.14,7.956
32.144,7.956
32.148,8.524
32.152,9.108
32.156,9.688
32.16,10.06
32.164,10.928
32.168,11.468
32.172,10.368
32.176,8.812
32.18,8.12
32.184,8.356
32.188,8.4
32.192,8.096
32.196,7.888
32.2,8.26
32.204,8.336
32.208,8
32.212,7.764
32.216,8.136
32.22,8.216
32.224,8.032
32.228,7.784
32.232,8.084
32.236,8.168
32.24,8.08
32.244,7.848
32.248,7.964
32.252,8.172
32.256,8.184
32.26,7.9
32.264,7.864
32.268,8.164
32.272,8.256
32.276,7.916
32.28,7.756
32.284,8.176
32.288,8.292
32.292,8.012
32.296,7.784
32.3,8.212
32.304,8.3
32.308,8.06
32.312,7.836
32.316,8.236
32.32,8.308
32.324,8.132
32.328,7.936
32.332,8.228
32.336,8.332
32.34,8.244
32.344,8.02
32.348,8.128
32.352,8.356
32.356,8.372
32.36,8.096
32.364,8.068
32.368,8.4
32.372,8.52
32.376,8.228
32.38,8.08
32.384,8.52
32.388,8.644
32.392,8.36
32.396,8.156
32.4,8.596
32.404,8.68
32.408,8.428
32.412,8.228
32.416,8.616
32.42,8.712
32.424,8.54
32.428,8.296
32.432,8.56
32.436,8.668
32.44,8.544
32.444,8.248
32.448,8.328
32.452,8.512
32.456,8.48
32.46,8.164
32.464,8.044
32.468,8.356
32.472,8.4
32.476,8.044
32.48,7.872
32.484,8.232
32.488,8.304
32.492,7.996
32.496,7.764
32.5,8.188
32.504,8.264
32.508,8.004
32.512,7.748
32.516,8.132
32.52,8.224
32.524,8.032
32.528,7.788
32.532,8.068
32.536,8.196
32.54,8.088
32.544,7.808
32.548,7.916
32.552,8.152
32.556,8.136
32.56,7.824
32.564,7.788
32.568,8.152
32.572,8.212
32.576,7.872
32.58,7.712
32.584,8.156
32.588,8.232
32.592,7.916
32.596,7.716
32.6,8.14
32.604,8.232
32.608,7.972
32.612,7.748
32.616,8.124
32.62,8.212
32.624,8.056
32.628,7.82
32.632,8.092
32.636,8.208
32.64,8.096
32.644,7.836
32.648,7.948
32.652,8.212
32.656,8.176
32.66,7.88
32.664,7.804
32.668,8.168
32.672,8.244
32.676,7.916
32.68,7.74
32.684,8.156
32.688,8.24
32.692,7.948
32.696,7.736
32.7,8.164
32.704,8.216
32.708,7.964
32.712,7.772
32.716,8.156
32.72,8.2
32.724,8.008
32.728,7.772
32.732,8.036
32.736,8.192
32.74,8.096
32.744,7.832
32.748,7.9
32.752,8.152
32.756,8.136
32.76,7.852
32.764,7.784
32.768,8.172
32.772,8.2
32.776,7.904
32.78,7.74
32.784,8.172
32.788,8.232
32.792,7.892
32.796,7.708
32.8,8.168
32.804,8.236
32.808,7.956
32.812,7.732
32.816,8.148
32.82,8.264
32.824,8.112
32.828,7.896
32.832,8.164
32.836,8.296
32.84,8.224
32.844,8.004
32.848,8.08
32.852,8.38
32.856,8.368
32.86,8.068
32.864,8.032
32.868,8.428
32.872,8.436
32.876,8.08
32.88,7.904
32.884,8.304
32.888,8.408
32.892,8.092
32.896,7.872
32.9,8.244
32.904,8.228
32.908,7.976
32.912,7.772
32.916,8.128
32.92,8.196
32.924,7.984
32.928,7.728
32.932,8.02
32.936,8.196
32.94,8.064
32.944,7.792
32.948,7.86
32.952,8.176
32.956,8.14
32.96,7.848
32.964,7.776
32.968,8.168
32.972,8.196
32.976,7.872
32.98,7.684
32.984,8.088
32.988,8.116
32.992,7.9
32.996,8.02
33,8.912
33.004,9.372
33.008,9.648
33.012,10.148
33.016,11.416
33.02,11.732
33.024,10.376
33.028,8.832
33.032,8.476
33.036,8.476
33.04,8.348
33.044,8.096
33.048,8.136
33.052,8.376
33.056,8.28
33.06,7.952
33.064,7.864
33.068,8.26
33.072,8.26
33.076,7.908
33.08,7.808
33.084,8.244
33.088,8.264
33.092,7.956
33.096,7.788
33.1,8.244
33.104,8.304
33.108,8.044
33.112,7.84
33.116,8.18
33.12,8.284
33.124,8.116
33.128,7.868
33.132,8.112
33.136,8.304
33.14,8.18
33.144,7.94
33.148,8.008
33.152,8.32
33.156,8.268
33.16,8.004
33.164,7.952
33.168,8.364
33.172,8.356
33.176,8.06
33.18,7.908
33.184,8.376
33.188,8.412
33.192,8.152
33.196,7.936
33.2,8.412
33.204,8.484
33.208,8.22
33.212,8.04
33.216,8.42
33.22,8.544
33.224,8.324
33.228,8.152
33.232,8.376
33.236,8.628
33.24,8.484
33.244,8.26
33.248,8.36
33.252,8.692
33.256,8.656
33.26,8.364
33.264,8.328
33.268,8.736
33.272,8.752
33.276,8.464
33.28,8.28
33.284,8.728
33.288,8.748
33.292,8.4
33.296,8.188
33.3,8.604
33.304,8.628
33.308,8.304
33.312,8.076
33.316,8.356
33.32,8.46
33.324,8.208
33.328,7.936
33.332,8.116
33.336,8.332
33.34,8.168
33.344,7.916
33.348,7.956
33.352,8.232
33.356,8.192
33.36,7.904
33.364,7.824
33.368,8.228
33.372,8.196
33.376,7.908
33.38,7.76
33.384,8.236
33.388,8.232
33.392,7.952
33.396,7.74
33.4,8.2
33.404,8.264
33.408,7.968
33.412,7.764
33.416,8.132
33.42,8.228
33.424,8.032
33.428,7.804
33.432,8.008
33.436,8.244
33.44,8.108
33.444,7.82
33.448,7.904
33.452,8.248
33.456,8.156
33.46,7.856
33.464,7.82
33.468,8.256
33.472,8.212
33.476,7.92
33.48,7.792
33.484,8.256
33.488,8.276
33.492,7.948
33.496,7.772
33.5,8.22
33.504,8.284
33.508,8.02
33.512,7.816
33.516,8.144
33.52,8.284
33.524,8.06
33.528,7.812
33.532,8.008
33.536,8.264
33.54,8.108
33.544,7.86
33.548,7.936
33.552,8.272
33.556,8.184
33.56,7.88
33.564,7.808
33.568,8.248
33.572,8.208
33.576,7.892
33.58,7.788
33.584,8.216
33.588,8.256
33.592,7.932
33.596,7.772
33.6,8.172
33.604,8.244
33.608,7.988
33.612,7.764
33.616,8.092
33.62,8.252
33.624,8.012
33.628,7.772
33.632,7.984
33.636,8.236
33.64,8.064
33.644,7.848
33.648,7.868
33.652,8.268
33.656,8.14
33.66,7.876
33.664,7.828
33.668,8.248
33.672,8.196
33.676,7.888
33.68,7.784
33.684,8.272
33.688,8.252
33.692,7.976
33.696,7.792
33.7,8.252
33.704,8.364
33.708,8.128
33.712,7.92
33.716,8.248
33.72,8.444
33.724,8.236
33.728,8.032
33.732,8.196
33.736,8.504
33.74,8.336
33.744,8.1
33.748,8.14
33.752,8.528
33.756,8.384
33.76,8.072
33.764,8.008
33.768,8.456
33.772,8.404
33.776,8.06
33.78,7.892
33.784,8.292
33.788,8.296
33.792,7.98
33.796,7.792
33.8,8.172
33.804,8.244
33.808,7.972
33.812,7.772
33.816,8.016
33.82,8.2
33.824,7.972
33.828,7.756
33.832,7.936
33.836,8.224
33.84,8.052
33.844,7.792
33.848,7.836
33.852,8.236
33.856,8.1
33.86,7.788
33.864,7.672
33.868,8.112
33.872,8.208
33.876,8.264
33.88,8.636
33.884,9.516
33.888,10.076
33.892,10.568
33.896,11.24
33.9,11.56
33.904,10.236
33.908,8.908
33.912,8.168
33.916,8.304
33.92,8.548
33.924,8.296
33.928,7.988
33.932,8.112
33.936,8.36
33.94,8.16
33.944,7.9
33.948,7.932
33.952,8.328
33.956,8.168
33.96,7.888
33.964,7.84
33.968,8.288
33.972,8.212
33.976,7.932
33.98,7.788
33.984,8.3
33.988,8.268
33.992,8.004
33.996,7.82
34,8.212
34.004,8.312
34.008,8.048
34.012,7.844
34.016,8.148
34.02,8.36
34.024,8.136
34.028,7.916
34.032,8.084
34.036,8.412
34.04,8.216
34.044,7.956
34.048,8.04
34.052,8.448
34.056,8.28
34.06,8.072
34.064,8.04
34.068,8.496
34.072,8.376
34.076,8.06
34.08,7.916
34.084,8.38
34.088,8.496
34.092,8.224
34.096,8.08
34.1,8.448
34.104,8.628
34.108,8.36
34.112,8.176
34.116,8.4
34.12,8.636
34.124,8.456
34.128,8.112
34.132,8.42
34.136,8.844
34.14,8.544
34.144,8.432
34.148,8.46
34.152,8.848
34.156,8.748
34.16,8.428
34.164,8.364
34.168,8.852
34.172,8.728
34.176,8.372
34.18,8.212
34.184,8.588
34.188,8.516
34.192,8.18
34.196,8.008
34.2,8.356
34.204,8.44
34.208,8.056
34.212,7.9
34.216,8.152
34.22,8.368
34.224,8.06
34.228,7.876
34.232,8.024
34.236,8.28
34.24,8.12
34.244,7.86
34.248,7.912
34.252,8.312
34.256,8.172
34.26,7.892
34.264,7.848
34.268,8.284
34.272,8.204
34.276,7.852
34.28,7.756
34.284,8.204
34.288,8.22
34.292,7.932
34.296,7.868
34.3,8.116
34.304,8.212
34.308,8
34.312,7.768
34.316,7.996
34.32,8.32
34.324,8.072
34.328,7.892
34.332,7.916
34.336,8.324
34.34,8.14
34.344,7.96
34.348,8.016
34.352,8.388
34.356,8.268
34.36,7.944
34.364,7.9
34.368,8.436
34.372,8.36
34.376,7.96
34.38,7.916
34.384,8.332
34.388,8.42
34.392,8.072
34.396,7.872
34.4,8.204
34.404,8.42
34.408,8.144
34.412,7.964
34.416,8.164
34.42,8.416
34.424,8.136
34.428,7.916
34.432,8.128
34.436,8.48
34.44,8.184
34.444,8
34.448,7.996
34.452,8.404
34.456,8.324
34.46,8.008
34.464,8.036
34.468,8.332
34.472,8.456
34.476,8.064
34.48,7.988
34.484,8.276
34.488,8.428
34.492,8.092
34.496,7.892
34.5,8.24
34.504,8.48
34.508,8.192
34.512,7.944
34.516,8.108
34.52,8.336
34.524,8.188
34.528,7.9
34.532,8.072
34.536,8.348
34.54,8.284
34.544,7.956
34.548,8.004
34.552,8.436
34.556,8.392
34.56,8.052
34.564,8.076
34.568,8.372
34.572,8.46
34.576,8.112
34.58,8.044
34.584,8.436
34.588,8.616
34.592,8.344
34.596,8.152
34.6,8.392
34.604,8.708
34.608,8.412
34.612,8.22
34.616,8.512
34.62,8.68
34.624,8.508
34.628,8.136
34.632,8.404
34.636,8.628
34.64,8.444
34.644,8.192
34.648,8.268
34.652,8.48
34.656,8.348
34.66,8.044
34.664,8.064
34.668,8.248
34.672,8.4
34.676,8.08
34.68,7.944
34.684,8.248
34.688,8.396
34.692,8.072
34.696,7.864
34.7,8.212
34.704,8.392
34.708,8.124
34.712,7.928
34.716,8.184
34.72,8.468
34.724,8.184
34.728,7.908
34.732,8.004
34.736,8.312
34.74,8.132
34.744,7.984
34.748,8.528
34.752,9.256
34.756,9.624
34.76,9.952
34.764,10.796
34.768,11.74
34.772,11.444
34.776,9.648
34.78,8.74
34.784,8.656
34.788,8.732
34.792,8.364
34.796,8.08
34.8,8.464
34.804,8.72
34.808,8.228
34.812,7.892
34.816,8.28
34.82,8.384
34.824,8.256
34.828,7.988
34.832,8.144
34.836,8.424
34.84,8.244
34.844,8.084
34.848,8.208
34.852,8.504
34.856,8.432
34.86,8.104
34.864,8.144
34.868,8.352
34.872,8.452
34.876,8.16
34.88,8.056
34.884,8.304
34.888,8.568
34.892,8.204
34.896,8.072
34.9,8.348
34.904,8.552
34.908,8.244
34.912,8.072
34.916,8.272
34.92,8.632
34.924,8.324
34.928,8.156
34.932,8.392
34.936,8.548
34.94,8.432
34.944,8.196
34.948,8.32
34.952,8.608
34.956,8.56
34.96,8.312
34.964,8.328
34.968,8.672
34.972,8.712
34.976,8.404
34.98,8.36
34.984,8.72
34.988,8.856
34.992,8.54
34.996,8.404
35,8.74
35.004,8.956
35.008,8.672
35.012,8.5
35.016,8.804
35.02,8.972
35.024,8.804
35.028,8.54
35.032,8.736
35.036,8.984
35.04,8.728
35.044,8.5
35.048,8.544
35.052,8.776
35.056,8.712
35.06,8.376
35.064,8.332
35.068,8.572
35.072,8.528
35.076,8.196
35.08,8.096
35.084,8.388
35.088,8.556
35.092,8.184
35.096,7.98
35.1,8.252
35.104,8.468
35.108,8.144
35.112,7.956
35.116,8.176
35.12,8.44
35.124,8.132
35.128,7.96
35.132,8.144
35.136,8.292
35.14,8.26
35.144,7.948
35.148,8.012
35.152,8.368
35.156,8.168
35.16,7.928
35.164,8.008
35.168,8.376
35.172,8.564
35.176,8.152
35.18,7.98
35.184,8.212
35.188,8.392
35.192,8.104
35.196,7.96
35.2,8.232
35.204,8.396
35.208,8.092
35.212,7.948
35.216,8.052
35.22,8.552
35.224,8.224
35.228,8.06
35.232,8.192
35.236,8.444
35.24,8.268
35.244,8.028
35.248,8.132
35.252,8.452
35.256,8.388
35.26,8.076
35.264,8.08
35.268,8.412
35.272,8.472
35.276,8.108
35.28,7.992
35.284,8.34
35.288,8.44
35.292,8.164
35.296,7.952
35.3,8.232
35.304,8.48
35.308,8.116
35.312,7.94
35.316,8.28
35.32,8.44
35.324,8.108
35.328,7.872
35.332,8.192
35.336,8.496
35.34,8.26
35.344,7.928
35.348,8.096
35.352,8.396
35.356,8.3
35.36,7.992
35.364,8.008
35.368,8.348
35.372,8.388
35.376,8.04
35.38,7.936
35.384,8.272
35.388,8.424
35.392,8.096
35.396,7.984
35.4,8.24
35.404,8.54
35.408,8.216
35.412,8.112
35.416,8.356
35.42,8.608
35.424,8.38
35.428,8.26
35.432,8.512
35.436,8.68
35.44,8.504
35.444,8.32
35.448,8.308
35.452,8.66
35.456,8.52
35.46,8.22
35.464,8.26
35.468,8.504
35.472,8.476
35.476,8.208
35.48,7.996
35.484,8.268
35.488,8.472
35.492,8.088
35.496,7.968
35.5,8.248
35.504,8.424
35.508,8.076
35.512,7.92
35.516,8.184
35.52,8.4
35.524,8.132
35.528,7.916
35.532,8.156
35.536,8.384
35.54,8.164
35.544,7.96
35.548,8.048
35.552,8.352
35.556,8.128
35.56,7.788
35.564,7.872
35.568,8.296
35.572,8.716
35.576,8.748
35.58,9.192
35.584,9.888
35.588,10.824
35.592,11.196
35.596,10.72
35.6,9.82
35.604,9.136
35.608,8.392
35.612,8.132
35.616,8.428
35.62,8.636
35.624,8.312
35.628,8.06
35.632,8.252
35.636,8.524
35.64,8.248
35.644,7.988
35.648,8.116
35.652,8.468
35.656,8.256
35.66,7.976
35.664,8.032
35.668,8.392
35.672,8.364
35.676,8.012
35.68,7.972
35.684,8.328
35.688,8.432
35.692,8.056
35.696,7.924
35.7,8.284
35.704,8.484
35.708,8.124
35.712,7.968
35.716,8.244
35.72,8.52
35.724,8.22
35.728,8.048
35.732,8.224
35.736,8.572
35.74,8.292
35.744,8.068
35.748,8.168
35.752,8.52
35.756,8.352
35.76,8.12
35.764,8.148
35.768,8.508
35.772,8.46
35.776,8.208
35.78,8.16
35.784,8.496
35.788,8.608
35.792,8.268
35.796,8.172
35.8,8.5
35.804,8.728
35.808,8.376
35.812,8.268
35.816,8.544
35.82,8.796
35.824,8.496
35.828,8.328
35.832,8.556
35.836,8.848
35.84,8.572
35.844,8.336
35.848,8.508
35.852,8.892
35.856,8.696
35.86,8.384
35.864,8.388
35.868,8.68
35.872,8.644
35.876,8.324
35.88,8.212
35.884,8.48
35.888,8.56
35.892,8.168
35.896,8.012
35.9,8.296
35.904,8.424
35.908,8.06
35.912,7.876
35.916,8.156
35.92,8.46
35.924,8.068
35.928,7.84
35.932,8.032
35.936,8.368
35.94,8.052
35.944,7.84
35.948,7.968
35.952,8.34
35.956,8.132
35.96,7.876
35.964,7.896
35.968,8.26
35.972,8.188
35.976,7.904
35.98,7.816
35.984,8.144
35.988,8.272
35.992,7.904
35.996,7.764
36,8.068
36.004,8.288
36.008,7.94
36.012,7.756
36.016,8.036
36.02,8.308
36.024,7.988
36.028,7.784
36.032,7.992
36.036,8.324
36.04,8.02
36.044,7.78
36.048,7.98
36.052,8.328
36.056,8.092
36.06,7.848
36.064,7.848
36.068,8.184
36.072,8.14
36.076,7.876
36.08,7.776
36.084,8.14
36.088,8.256
36.092,7.94
36.096,7.816
36.1,8.1
36.104,8.28
36.108,7.904
36.112,7.788
36.116,8.056
36.12,8.352
36.124,7.956
36.128,7.8
36.132,8.012
36.136,8.34
36.14,8.02
36.144,7.844
36.148,8.008
36.152,8.392
36.156,8.216
36.16,7.976
36.164,8.02
36.168,8.424
36.172,8.38
36.176,8.108
36.18,8.06
36.184,8.396
36.188,8.492
36.192,8.208
36.196,8.056
36.2,8.38
36.204,8.536
36.208,8.076
36.212,7.936
36.216,8.196
36.22,8.452
36.224,8.06
36.228,7.856
36.232,7.988
36.236,8.32
36.24,7.972
36.244,7.788
36.248,7.928
36.252,8.236
36.256,7.996
36.26,7.772
36.264,7.82
36.268,8.148
36.272,8.108
36.276,7.808
36.28,7.756
36.284,8.084
36.288,8.224
36.292,7.872
36.296,7.712
36.3,8.036
36.304,8.208
36.308,7.756
36.312,7.6
36.316,8.072
36.32,8.736
36.324,8.784
36.328,9.024
36.332,9.816
36.336,11.064
36.34,11.348
36.344,10.576
36.348,9.252
36.352,8.82
36.356,8.356
36.36,8.008
36.364,8.044
36.368,8.396
36.372,8.288
36.376,7.92
36.38,7.824
36.384,8.124
36.388,8.288
36.392,7.888
36.396,7.756
36.4,8.068
36.404,8.312
36.408,7.94
36.412,7.752
36.416,8.024
36.42,8.372
36.424,7.968
36.428,7.768
36.432,8.008
36.436,8.368
36.44,8.008
36.444,7.836
36.448,7.94
36.452,8.296
36.456,8.128
36.46,7.904
36.464,7.952
36.468,8.256
36.472,8.236
36.476,7.948
36.48,7.94
36.484,8.284
36.488,8.452
36.492,8.036
36.496,7.868
36.5,8.212
36.504,8.516
36.508,8.068
36.512,7.812
36.516,8.204
36.52,8.516
36.524,8.148
36.528,8.012
36.532,8.216
36.536,8.596
36.54,8.292
36.544,8.076
36.548,8.268
36.552,8.608
36.556,8.448
36.56,8.212
36.564,8.32
36.568,8.728
36.572,8.736
36.576,8.384
36.58,8.296
36.584,8.624
36.588,8.78
36.592,8.496
36.596,8.344
36.6,8.576
36.604,8.836
36.608,8.36
36.612,8.196
36.616,8.428
36.62,8.788
36.624,8.328
36.628,8.112
36.632,8.296
36.636,8.6
36.64,8.268
36.644,8.036
36.648,8.072
36.652,8.344
36.656,8.188
36.66,7.896
36.664,7.916
36.668,8.236
36.672,8.2
36.676,7.872
36.68,7.828
36.684,8.132
36.688,8.256
36.692,7.888
36.696,7.78
36.7,8.072
36.704,8.324
36.708,7.892
36.712,7.752
36.716,8.036
36.72,8.32
36.724,7.912
36.728,7.74
36.732,7.972
36.736,8.308
36.74,7.964
36.744,7.788
36.748,7.936
36.752,8.244
36.756,8.08
36.76,7.824
36.764,7.84
36.768,8.16
36.772,8.18
36.776,7.856
36.78,7.804
36.784,8.12
36.788,8.264
36.792,7.876
36.796,7.764
36.8,8.096
36.804,8.344
36.808,7.92
36.812,7.768
36.816,8.056
36.82,8.384
36.824,7.976
36.828,7.788
36.832,7.984
36.836,8.284
36.84,7.996
36.844,7.8
36.848,7.932
36.852,8.216
36.856,8.06
36.86,7.816
36.864,7.836
36.868,8.204
36.872,8.236
36.876,7.896
36.88,7.88
36.884,8.2
36.888,8.384
36.892,8.04
36.896,7.94
36.9,8.292
36.904,8.588
36.908,8.168
36.912,8.048
36.916,8.304
36.92,8.58
36.924,8.192
36.928,8.028
36.932,8.204
36.936,8.496
36.94,8.16
36.944,7.968
36.948,8.056
36.952,8.304
36.956,8.084
36.96,7.812
36.964,7.84
36.968,8.104
36.972,8.136
36.976,7.78
36.98,7.724
36.984,8.04
36.988,8.176
36.992,7.796
36.996,7.688
37,8
37.004,8.256
37.008,7.808
37.012,7.692
37.016,7.964
37.02,8.28
37.024,7.852
37.028,7.644
37.032,7.84
37.036,8.116
37.04,7.844
37.044,7.844
37.048,8.376
37.052,9.072
37.056,9.424
37.06,9.74
37.064,10.632
37.068,11.464
37.072,10.676
37.076,8.972
37.08,8.288
37.084,8.32
37.088,8.408
37.092,8.02
37.096,7.896
37.1,8.172
37.104,8.424
37.108,7.9
37.112,7.724
37.116,7.988
37.12,8.308
37.124,7.888
37.128,7.724
37.132,7.92
37.136,8.228
37.14,7.908
37.144,7.656
37.148,7.856
37.152,8.152
37.156,8.028
37.16,7.74
37.164,7.788
37.168,8.124
37.172,8.148
37.176,7.76
37.18,7.732
37.184,8.068
37.188,8.256
37.192,7.844
37.196,7.728
37.2,8.044
37.204,8.356
37.208,7.892
37.212,7.764
37.216,8.036
37.22,8.368
37.224,7.944
37.228,7.78
37.232,8.032
37.236,8.364
37.24,8.068
37.244,7.868
37.248,8.024
37.252,8.348
37.256,8.212
37.26,7.928
37.264,8.008
37.268,8.352
37.272,8.416
37.276,8.084
37.28,8.048
37.284,8.368
37.288,8.576
37.292,8.156
37.296,8.112
37.3,8.428
37.304,8.736
37.308,8.272
37.312,8.168
37.316,8.472
37.32,8.808
37.324,8.384
37.328,8.18
37.332,8.392
37.336,8.692
37.34,8.38
37.344,8.152
37.348,8.248
37.352,8.5
37.356,8.328
37.36,8.008
37.364,8.016
37.368,8.264
37.372,8.256
37.376,7.888
37.38,7.848
37.384,8.168
37.388,8.304
37.392,7.856
37.396,7.716
37.4,8.02
37.404,8.34
37.408,7.848
37.412,7.676
37.416,7.988
37.42,8.312
37.424,7.896
37.428,7.716
37.432,8.02
37.436,8.396
37.44,8.096
37.444,7.76
37.448,7.66
37.452,8.036
37.456,7.992
37.46,7.672
37.464,7.7
37.468,8.044
37.472,8.128
37.476,7.704
37.48,7.688
37.484,8.008
37.488,8.288
37.492,7.868
37.496,7.712
37.5,8.036
37.504,8.328
37.508,7.9
37.512,7.776
37.516,8.088
37.52,8.452
37.524,7.972
37.528,7.408
37.532,7.768
37.536,8.12
37.54,7.876
37.544,7.684
37.548,7.812
37.552,8.088
37.556,7.972
37.56,7.632
37.564,7.728
37.568,8.024
37.572,8.196
37.576,7.852
37.58,7.716
37.584,8.048
37.588,8.268
37.592,7.812
37.596,7.692
37.6,8.06
37.604,8.392
37.608,7.928
37.612,7.84
37.616,8.124
37.62,8.432
37.624,8.048
37.628,7.916
37.632,8.112
37.636,8.328
37.64,8.064
37.644,7.792
37.648,7.928
37.652,8.148
37.656,8
37.66,7.704
37.664,7.76
37.668,8.008
37.672,8.048
37.676,7.628
37.68,7.604
37.684,7.92
37.688,8.108
37.692,7.6
37.696,7.476
37.7,7.808
37.704,8.144
37.708,7.62
37.712,7.5
37.716,7.836
37.72,8.184
37.724,7.784
37.728,7.596
37.732,7.864
37.736,8.076
37.74,7.74
37.744,7.476
37.748,7.656
37.752,8.108
37.756,8.272
37.76,8.408
37.764,8.772
37.768,9.768
37.772,10.756
37.776,11.1
37.78,10.516
37.784,9.42
37.788,8.836
37.792,7.932
37.796,7.728
37.8,8.088
37.804,8.508
37.808,8.02
37.812,7.8
37.816,7.868
37.82,8.148
37.824,7.764
37.828,7.496
37.832,7.904
37.836,8.14
37.84,7.824
37.844,7.672
37.848,7.756
37.852,8.188
37.856,7.892
37.86,7.808
37.864,7.784
37.868,7.788
37.872,8.108
37.876,7.8
37.88,8.096
37.884,8.252
37.888,8.224
37.892,7.7
37.896,7.668
37.9,7.92
37.904,8.424
37.908,8.056
37.912,7.972
37.916,8.204
37.92,8.544
37.924,8.036
37.928,7.952
37.932,8.304
37.936,8.596
37.94,8.176
37.944,7.892
37.948,8.016
37.952,8.524
37.956,8.432
37.96,8.076
37.964,8.068
37.968,8.496
37.972,8.652
37.976,8.292
37.98,8.184
37.984,8.436
37.988,8.708
37.992,8.164
37.996,8.136
38,8.472
38.004,8.752
38.008,8.364
38.012,8.192
38.016,8.484
38.02,8.756
38.024,8.42
38.028,8.284
38.032,8.48
38.036,8.748
38.04,8.512
38.044,8.264
38.048,8.38
38.052,8.668
38.056,8.552
38.06,8.184
38.064,8.196
38.068,8.472
38.072,8.512
38.076,8.1
38.08,8.016
38.084,8.304
38.088,8.46
38.092,7.984
38.096,7.836
38.1,8.116
38.104,8.396
38.108,7.956
38.112,7.812
38.116,8.1
38.12,8.364
38.124,7.96
38.128,7.74
38.132,7.984
38.136,8.292
38.14,8.188
38.144,7.876
38.148,8
38.152,8.244
38.156,8.22
38.16,7.94
38.164,8.068
38.168,8.34
38.172,8.34
38.176,7.748
38.18,7.608
38.184,7.964
38.188,8.248
38.192,7.756
38.196,7.6
38.2,7.944
38.204,8.252
38.208,7.804
38.212,7.64
38.216,7.904
38.22,8.108
38.224,7.784
38.228,7.572
38.232,7.732
38.236,8.024
38.24,7.852
38.244,7.612
38.248,7.792
38.252,8.088
38.256,8.064
38.26,7.692
38.264,7.7
38.268,8.028
38.272,8.128
38.276,7.696
38.28,7.672
38.284,8.024
38.288,8.232
38.292,7.74
38.296,7.648
38.3,7.984
38.304,8.308
38.308,7.86
38.312,7.676
38.316,8.036
38.32,8.276
38.324,7.936
38.328,7.756
38.332,8.024
38.336,8.276
38.34,8.16
38.344,7.836
38.348,8.028
38.352,8.308
38.356,8.216
38.36,7.872
38.364,7.932
38.368,8.224
38.372,8.292
38.376,7.872
38.38,7.796
38.384,8.136
38.388,8.252
38.392,7.828
38.396,7.656
38.4,7.992
38.404,8.152
38.408,7.824
38.412,7.612
38.416,7.88
38.42,8.108
38.424,7.82
38.428,7.596
38.432,7.816
38.436,8.064
38.44,7.9
38.444,7.628
38.448,7.736
38.452,8.048
38.456,7.996
38.46,7.676
38.464,7.644
38.468,7.892
38.472,7.976
38.476,7.892
38.48,8.272
38.484,9.028
38.488,9.716
38.492,10.06
38.496,10.816
38.5,11.564
38.504,11.044
38.508,9.236
38.512,8.256
38.516,8.156
38.52,8.436
38.524,8.224
38.528,7.92
38.532,8.052
38.536,8.2
38.54,8.072
38.544,7.764
38.548,7.836
38.552,8.072
38.556,8.016
38.56,7.66
38.564,7.74
38.568,8.036
38.572,8.076
38.576,7.804
38.58,7.824
38.584,8.24
38.588,8.304
38.592,7.824
38.596,7.592
38.6,8.048
38.604,8.3
38.608,7.952
38.612,7.64
38.616,7.936
38.62,8.088
38.624,7.904
38.628,7.684
38.632,7.876
38.636,8.136
38.64,8.02
38.644,7.812
38.648,7.948
38.652,8.296
38.656,8.196
38.66,7.904
38.664,7.992
38.668,8.196
38.672,8.288
38.676,7.876
38.68,7.78
38.684,8.112
38.688,8.308
38.692,8.004
38.696,7.896
38.7,8.232
38.704,8.472
38.708,8.156
38.712,7.964
38.716,8.26
38.72,8.528
38.724,8.3
38.728,8.084
38.732,8.308
38.736,8.568
38.74,8.424
38.744,8.14
38.748,8.276
38.752,8.56
38.756,8.52
38.76,8.196
38.764,8.228
38.768,8.508
38.772,8.5
38.776,8.168
38.78,8.064
38.784,8.364
38.788,8.444
38.792,8.068
38.796,7.872
38.8,8.184
38.804,8.352
38.808,7.976
38.812,7.776
38.816,8.04
38.82,8.272
38.824,7.968
38.828,7.736
38.832,7.944
38.836,8.168
38.84,8.024
38.844,7.748
38.848,7.86
38.852,8.104
38.856,8.04
38.86,7.78
38.864,7.776
38.868,8.096
38.872,8.14
38.876,7.688
38.88,7.644
38.884,7.932
38.888,8.068
38.892,7.788
38.896,7.7
38.9,7.928
38.904,8.328
38.908,8.04
38.912,7.676
38.916,7.932
38.92,8.176
38.924,7.944
38.928,7.66
38.932,7.956
38.936,8.184
38.94,8.036
38.944,7.676
38.948,7.732
38.952,8.156
38.956,8.088
38.96,7.592
38.964,7.756
38.968,8.112
38.972,8.092
38.976,7.944
38.98,7.792
38.984,8.12
38.988,8.22
38.992,7.836
38.996,7.812
39,8.112
39.004,8.24
39.008,8.052
39.012,7.92
39.016,8.188
39.02,8.404
39.024,8.184
39.028,7.992
39.032,8.248
39.036,8.536
39.04,8.304
39.044,8.032
39.048,8.152
39.052,8.596
39.056,8.528
39.06,8.184
39.064,8.108
39.068,8.4
39.072,8.48
39.076,8.116
39.08,8.056
39.084,8.24
39.088,8.268
39.092,7.948
39.096,7.768
39.1,8.124
39.104,8.236
39.108,7.976
