0,8.22
0.004,8.252
0.008,8.152
0.012,8.216
0.016,8.256
0.02,8.236
0.024,8.152
0.028,8.172
0.032,8.244
0.036,8.252
0.04,8.172
0.044,8.156
0.048,8.256
0.052,8.22
0.056,8.18
0.06,8.148
0.064,8.228
0.068,8.24
0.072,8.228
0.076,8.14
0.08,8.204
0.084,8.256
0.088,8.224
0.092,8.14
0.096,8.192
0.1,8.256
0.104,8.228
0.108,8.132
0.112,8.188
0.116,8.232
0.12,8.236
0.124,8.16
0.128,8.16
0.132,8.248
0.136,8.26
0.14,8.168
0.144,8.172
0.148,8.252
0.152,8.292
0.156,8.188
0.16,8.116
0.164,8.188
0.168,8.216
0.172,8.192
0.176,8.128
0.18,8.2
0.184,8.268
0.188,8.248
0.192,8.156
0.196,8.216
0.2,8.28
0.204,8.236
0.208,8.124
0.212,8.196
0.216,8.26
0.22,8.224
0.224,8.148
0.228,8.164
0.232,8.244
0.236,8.252
0.24,8.176
0.244,8.148
0.248,8.208
0.252,8.268
0.256,8.2
0.26,8.176
0.264,8.252
0.268,8.248
0.272,8.204
0.276,8.164
0.28,8.204
0.284,8.24
0.288,8.236
0.292,8.152
0.296,8.196
0.3,8.26
0.304,8.232
0.308,8.176
0.312,8.188
0.316,8.264
0.32,8.252
0.324,8.148
0.328,8.176
0.332,8.272
0.336,8.276
0.34,8.196
0.344,8.14
0.348,8.232
0.352,8.272
0.356,8.204
0.36,8.14
0.364,8.228
0.368,8.292
0.372,8.232
0.376,8.152
0.38,8.196
0.384,8.268
0.388,8.248
0.392,8.168
0.396,8.2
0.4,8.26
0.404,8.244
0.408,8.188
0.412,8.2
0.416,8.32
0.42,8.268
0.424,8.184
0.428,8.172
0.432,8.228
0.436,8.26
0.44,8.196
0.444,8.176
0.448,8.232
0.452,8.272
0.456,8.192
0.46,8.144
0.464,8.216
0.468,8.252
0.472,8.204
0.476,8.152
0.48,8.256
0.484,8.28
0.488,8.248
0.492,8.164
0.496,8.236
0.5,8.312
0.504,8.24
0.508,8.156
0.512,8.176
0.516,8.248
0.52,8.26
0.524,8.148
0.528,8.188
0.532,8.26
0.536,8.264
0.54,8.212
0.544,8.192
0.548,8.248
0.552,8.256
0.556,8.188
0.56,8.188
0.564,8.252
0.568,8.268
0.572,8.232
0.576,8.2
0.58,8.252
0.584,8.316
0.588,8.308
0.592,8.22
0.596,8.32
0.6,8.408
0.604,8.356
0.608,8.284
0.612,8.332
0.616,8.384
0.62,8.412
0.624,8.364
0.628,8.436
0.632,8.536
0.636,8.54
0.64,8.48
0.644,8.504
0.648,8.572
0.652,8.556
0.656,8.468
0.66,8.416
0.664,8.524
0.668,8.516
0.672,8.408
0.676,8.264
0.68,8.26
0.684,8.276
0.688,8.236
0.692,8.16
0.696,8.216
0.7,8.264
0.704,8.252
0.708,8.152
0.712,8.164
0.716,8.256
0.72,8.188
0.724,8.124
0.728,8.044
0.732,7.98
0.736,8.06
0.74,8.14
0.744,8.476
0.748,9.268
0.752,10.104
0.756,10.856
0.76,11.36
0.764,10.6
0.768,9.568
0.772,8.828
0.776,8.276
0.78,8.192
0.784,8.204
0.788,8.276
0.792,8.14
0.796,8.108
0.8,8.168
0.804,8.168
0.808,8.056
0.812,8.124
0.816,8.184
0.82,8.16
0.824,8.044
0.828,8.044
0.832,8.108
0.836,8.108
0.84,8.036
0.844,8.052
0.848,8.156
0.852,8.16
0.856,8.108
0.86,8.052
0.864,8.136
0.868,8.16
0.872,8.092
0.876,7.992
0.88,8.088
0.884,8.152
0.888,8.124
0.892,8.048
0.896,8.076
0.9,8.136
0.904,8.112
0.908,8.06
0.912,8.064
0.916,8.148
0.92,8.1
0.924,8.032
0.928,8.12
0.932,8.152
0.936,8.136
0.94,8.076
0.944,8.076
0.948,8.172
0.952,8.208
0.956,8.088
0.96,8.072
0.964,8.116
0.968,8.148
0.972,8.112
0.976,8.056
0.98,8.124
0.984,8.188
0.988,8.16
0.992,8.096
0.996,8.18
1,8.244
1.004,8.236
1.008,8.156
1.012,8.208
1.016,8.296
1.02,8.284
1.024,8.184
1.028,8.224
1.032,8.324
1.036,8.376
1.04,8.316
1.044,8.308
1.048,8.396
1.052,8.476
1.056,8.472
1.06,8.464
1.064,8.548
1.068,8.636
1.072,8.632
1.076,8.588
1.08,8.716
1.084,8.812
1.088,8.792
1.092,8.712
1.096,8.808
1.1,8.924
1.104,8.94
1.108,8.848
1.112,8.888
1.116,8.94
1.12,8.964
1.124,8.872
1.128,8.848
1.132,8.888
1.136,8.848
1.14,8.736
1.144,8.68
1.148,8.672
1.152,8.68
1.156,8.544
1.16,8.424
1.164,8.48
1.168,8.5
1.172,8.416
1.176,8.324
1.18,8.356
1.184,8.4
1.188,8.328
1.192,8.244
1.196,8.3
1.2,8.332
1.204,8.288
1.208,8.192
1.212,8.22
1.216,8.284
1.22,8.272
1.224,8.156
1.228,8.176
1.232,8.272
1.236,8.26
1.24,8.192
1.244,8.148
1.248,8.208
1.252,8.264
1.256,8.176
1.26,8.116
1.264,8.176
1.268,8.228
1.272,8.192
1.276,8.116
1.28,8.184
1.284,8.232
1.288,8.208
1.292,8.152
1.296,8.208
1.3,8.26
1.304,8.26
1.308,8.172
1.312,8.28
1.316,8.312
1.32,8.24
1.324,8.18
1.328,8.148
1.332,8.26
1.336,8.252
1.34,8.22
1.344,8.224
1.348,8.292
1.352,8.312
1.356,8.272
1.36,8.22
1.364,8.212
1.368,8.26
1.372,8.256
1.376,8.216
1.38,8.24
1.384,8.304
1.388,8.256
1.392,8.204
1.396,8.208
1.4,8.288
1.404,8.256
1.408,8.184
1.412,8.196
1.416,8.268
1.42,8.256
1.424,8.188
1.428,8.168
1.432,8.232
1.436,8.308
1.44,8.192
1.444,8.18
1.448,8.244
1.452,8.264
1.456,8.176
1.46,8.112
1.464,8.248
1.468,8.26
1.472,8.176
1.476,8.132
1.48,8.192
1.484,8.268
1.488,8.204
1.492,8.156
1.496,8.2
1.5,8.264
1.504,8.228
1.508,8.136
1.512,8.124
1.516,8.188
1.52,8.212
1.524,8.132
1.528,8.18
1.532,8.272
1.536,8.248
1.54,8.16
1.544,8.164
1.548,8.232
1.552,8.256
1.556,8.18
1.56,8.124
1.564,8.204
1.568,8.224
1.572,8.16
1.576,8.116
1.58,8.16
1.584,8.224
1.588,8.16
1.592,8.12
1.596,8.176
1.6,8.232
1.604,8.204
1.608,8.144
1.612,8.164
1.616,8.232
1.62,8.208
1.624,8.112
1.628,8.144
1.632,8.208
1.636,8.252
1.64,8.172
1.644,8.144
1.648,8.204
1.652,8.252
1.656,8.168
1.66,8.132
1.664,8.192
1.668,8.244
1.672,8.164
1.676,8.108
1.68,8.188
1.684,8.236
1.688,8.192
1.692,8.14
1.696,8.188
1.7,8.272
1.704,8.232
1.708,8.12
1.712,8.128
1.716,8.208
1.72,8.22
1.724,8.144
1.728,8.148
1.732,8.2
1.736,8.228
1.74,8.136
1.744,8.152
1.748,8.192
1.752,8.24
1.756,8.152
1.76,8.124
1.764,8.236
1.768,8.248
1.772,8.172
1.776,8.124
1.78,8.196
1.784,8.228
1.788,8.18
1.792,8.132
1.796,8.168
1.8,8.256
1.804,8.236
1.808,8.16
1.812,8.192
1.816,8.228
1.82,8.204
1.824,8.128
1.828,8.168
1.832,8.224
1.836,8.228
1.84,8.144
1.844,8.156
1.848,8.224
1.852,8.276
1.856,8.168
1.86,8.148
1.864,8.256
1.868,8.272
1.872,8.204
1.876,8.152
1.88,8.212
1.884,8.248
1.888,8.212
1.892,8.156
1.896,8.212
1.9,8.292
1.904,8.244
1.908,8.128
1.912,8.18
1.916,8.236
1.92,8.216
1.924,8.14
1.928,8.18
1.932,8.26
1.936,8.276
1.94,8.152
1.944,8.14
1.948,8.2
1.952,8.236
1.956,8.188
1.96,8.132
1.964,8.188
1.968,8.26
1.972,8.18
1.976,8.164
1.98,8.228
1.984,8.264
1.988,8.204
1.992,8.104
1.996,8.16
2,8.232
2.004,8.204
2.008,8.14
2.012,8.2
2.016,8.26
2.02,8.252
2.024,8.168
2.028,8.188
2.032,8.256
2.036,8.248
2.04,8.16
2.044,8.188
2.048,8.22
2.052,8.272
2.056,8.204
2.06,8.204
2.064,8.288
2.068,8.328
2.072,8.276
2.076,8.228
2.08,8.3
2.084,8.396
2.088,8.38
2.092,8.3
2.096,8.376
2.1,8.472
2.104,8.476
2.108,8.42
2.112,8.48
2.116,8.552
2.12,8.56
2.124,8.464
2.128,8.44
2.132,8.508
2.136,8.5
2.14,8.344
2.144,8.292
2.148,8.344
2.152,8.304
2.156,8.212
2.16,8.14
2.164,8.208
2.168,8.232
2.172,8.172
2.176,8.104
2.18,8.176
2.184,8.208
2.188,8.16
2.192,8.112
2.196,8.168
2.2,8.14
2.204,7.94
2.208,7.872
2.212,8.112
2.216,8.46
2.22,9.12
2.224,9.848
2.228,10.668
2.232,11.348
2.236,10.836
2.24,9.572
2.244,8.844
2.248,8.352
2.252,8.156
2.256,8.072
2.26,8.176
2.264,8.18
2.268,8.172
2.272,8.056
2.276,8.036
2.28,8.128
2.284,8.18
2.288,8.1
2.292,8.02
2.296,8.08
2.3,8.172
2.304,8.104
2.308,7.992
2.312,8.024
2.316,8.12
2.32,8.156
2.324,8.044
2.328,8.048
2.332,8.108
2.336,8.144
2.34,8.036
2.344,8.06
2.348,8.12
2.352,8.112
2.356,8.02
2.36,8.004
2.364,8.088
2.368,8.14
2.372,8.06
2.376,8.028
2.38,8.092
2.384,8.132
2.388,8.084
2.392,8.016
2.396,8.064
2.4,8.128
2.404,8.112
2.408,8.084
2.412,8.08
2.416,8.156
2.42,8.144
2.424,8.06
2.428,8.052
2.432,8.132
2.436,8.148
2.44,8.096
2.444,8.096
2.448,8.164
2.452,8.212
2.456,8.14
2.46,8.1
2.464,8.152
2.468,8.212
2.472,8.152
2.476,8.096
2.48,8.2
2.484,8.248
2.488,8.212
2.492,8.172
2.496,8.288
2.5,8.36
2.504,8.296
2.508,8.26
2.512,8.304
2.516,8.4
2.52,8.436
2.524,8.372
2.528,8.42
2.532,8.536
2.536,8.6
2.54,8.524
2.544,8.552
2.548,8.676
2.552,8.72
2.556,8.708
2.56,8.712
2.564,8.816
2.568,8.888
2.572,8.856
2.576,8.852
2.58,8.932
2.584,9
2.588,8.96
2.592,8.864
2.596,8.9
2.6,8.944
2.604,8.908
2.608,8.788
2.612,8.728
2.616,8.764
2.62,8.728
2.624,8.576
2.628,8.552
2.632,8.584
2.636,8.54
2.64,8.396
2.644,8.404
2.648,8.404
2.652,8.42
2.656,8.32
2.66,8.264
2.664,8.352
2.668,8.368
2.672,8.272
2.676,8.208
2.68,8.268
2.684,8.276
2.688,8.272
2.692,8.128
2.696,8.188
2.7,8.244
2.704,8.232
2.708,8.168
2.712,8.192
2.716,8.252
2.72,8.264
2.724,8.128
2.728,8.16
2.732,8.248
2.736,8.24
2.74,8.152
2.744,8.144
2.748,8.192
2.752,8.212
2.756,8.192
2.76,8.14
2.764,8.22
2.768,8.26
2.772,8.212
2.776,8.168
2.78,8.248
2.784,8.272
2.788,8.208
2.792,8.148
2.796,8.228
2.8,8.28
2.804,8.248
2.808,8.184
2.812,8.244
2.816,8.264
2.82,8.3
2.824,8.204
2.828,8.236
2.832,8.304
2.836,8.312
2.84,8.228
2.844,8.248
2.848,8.296
2.852,8.308
2.856,8.232
2.86,8.188
2.864,8.24
2.868,8.288
2.872,8.232
2.876,8.164
2.88,8.26
2.884,8.284
2.888,8.26
2.892,8.192
2.896,8.24
2.9,8.296
2.904,8.248
2.908,8.148
2.912,8.2
2.916,8.256
2.92,8.248
2.924,8.18
2.928,8.16
2.932,8.248
2.936,8.24
2.94,8.188
2.944,8.164
2.948,8.228
2.952,8.236
2.956,8.18
2.96,8.172
2.964,8.252
2.968,8.296
2.972,8.224
2.976,8.156
2.98,8.216
2.984,8.272
2.988,8.204
2.992,8.156
2.996,8.216
3,8.272
3.004,8.228
3.008,8.128
3.012,8.192
3.016,8.24
3.02,8.212
3.024,8.144
3.028,8.164
3.032,8.252
3.036,8.252
3.04,8.152
3.044,8.136
3.048,8.204
3.052,8.24
3.056,8.176
3.06,8.172
3.064,8.236
3.068,8.268
3.072,8.224
3.076,8.156
3.08,8.188
3.084,8.236
3.088,8.168
3.092,8.12
3.096,8.2
3.1,8.244
3.104,8.244
3.108,8.148
3.112,8.204
3.116,8.28
3.12,8.204
3.124,8.104
3.128,8.136
3.132,8.224
3.136,8.224
3.14,8.148
3.144,8.172
3.148,8.256
3.152,8.248
3.156,8.18
3.16,8.16
3.164,8.204
3.168,8.24
3.172,8.192
3.176,8.124
3.18,8.208
3.184,8.26
3.188,8.22
3.192,8.148
3.196,8.212
3.2,8.268
3.204,8.256
3.208,8.116
3.212,8.188
3.216,8.232
3.22,8.248
3.224,8.168
3.228,8.156
3.232,8.216
3.236,8.232
3.24,8.176
3.244,8.176
3.248,8.244
3.252,8.272
3.256,8.192
3.26,8.156
3.264,8.22
3.268,8.26
3.272,8.188
3.276,8.144
3.28,8.16
3.284,8.256
3.288,8.212
3.292,8.144
3.296,8.196
3.3,8.248
3.304,8.212
3.308,8.136
3.312,8.164
3.316,8.268
3.32,8.248
3.324,8.148
3.328,8.172
3.332,8.248
3.336,8.264
3.34,8.144
3.344,8.128
3.348,8.22
3.352,8.236
3.356,8.192
3.36,8.172
3.364,8.216
3.368,8.232
3.372,8.168
3.376,8.12
3.38,8.212
3.384,8.232
3.388,8.204
3.392,8.128
3.396,8.196
3.4,8.276
3.404,8.232
3.408,8.14
3.412,8.164
3.416,8.26
3.42,8.244
3.424,8.148
3.428,8.156
3.432,8.256
3.436,8.252
3.44,8.168
3.444,8.16
3.448,8.248
3.452,8.268
3.456,8.192
3.46,8.164
3.464,8.188
3.468,8.252
3.472,8.2
3.476,8.14
3.48,8.232
3.484,8.276
3.488,8.264
3.492,8.172
3.496,8.228
3.5,8.276
3.504,8.216
3.508,8.144
3.512,8.204
3.516,8.26
3.52,8.232
3.524,8.18
3.528,8.212
3.532,8.276
3.536,8.284
3.54,8.228
3.544,8.284
3.548,8.332
3.552,8.324
3.556,8.276
3.56,8.248
3.564,8.34
3.568,8.428
3.572,8.364
3.576,8.372
3.58,8.468
3.584,8.552
3.588,8.572
3.592,8.476
3.596,8.5
3.6,8.524
3.604,8.464
3.608,8.412
3.612,8.46
3.616,8.472
3.62,8.404
3.624,8.244
3.628,8.228
3.632,8.28
3.636,8.248
3.64,8.112
3.644,8.144
3.648,8.188
3.652,8.244
3.656,8.16
3.66,8.096
3.664,8.188
3.668,8.2
3.672,8.132
3.676,7.996
3.68,7.952
3.684,8.008
3.688,8.112
3.692,8.312
3.696,9.044
3.7,9.94
3.704,10.716
3.708,11.232
3.712,10.772
3.716,9.696
3.72,8.94
3.724,8.352
3.728,8.116
3.732,8.14
3.736,8.256
3.74,8.124
3.744,8.08
3.748,8.12
3.752,8.136
3.756,8.12
3.76,8.096
3.764,8.092
3.768,8.116
3.772,8.096
3.776,8.044
3.78,8.096
3.784,8.104
3.788,8.064
3.792,7.996
3.796,8.084
3.8,8.144
3.804,8.124
3.808,8.024
3.812,8.068
3.816,8.136
3.82,8.136
3.824,8.032
3.828,8.044
3.832,8.112
3.836,8.124
3.84,8.036
3.844,8.036
3.848,8.104
3.852,8.152
3.856,8.056
3.86,8
3.864,8.032
3.868,8.132
3.872,8.068
3.876,7.996
3.88,8.092
3.884,8.132
3.888,8.116
3.892,8.036
3.896,8.096
3.9,8.156
3.904,8.1
3.908,8.052
3.912,8.064
3.916,8.144
3.92,8.156
3.924,8.044
3.928,8.108
3.932,8.208
3.936,8.192
3.94,8.132
3.944,8.128
3.948,8.224
3.952,8.24
3.956,8.164
3.96,8.148
3.964,8.188
3.968,8.276
3.972,8.264
3.976,8.236
3.98,8.34
3.984,8.396
3.988,8.344
3.992,8.292
3.996,8.384
4,8.452
4.004,8.452
4.008,8.4
4.012,8.492
4.016,8.62
4.02,8.636
4.024,8.556
4.028,8.668
4.032,8.796
4.036,8.804
4.04,8.78
4.044,8.784
4.048,8.864
4.052,8.912
4.056,8.884
4.06,8.868
4.064,8.972
4.068,8.972
4.072,8.884
4.076,8.8
4.08,8.856
4.084,8.888
4.088,8.776
4.092,8.636
4.096,8.66
4.1,8.668
4.104,8.616
4.108,8.468
4.112,8.476
4.116,8.504
4.12,8.408
4.124,8.308
4.128,8.34
4.132,8.376
4.136,8.356
4.14,8.252
4.144,8.22
4.148,8.316
4.152,8.316
4.156,8.2
4.16,8.18
4.164,8.268
4.168,8.296
4.172,8.22
4.176,8.128
4.18,8.192
4.184,8.248
4.188,8.236
4.192,8.156
4.196,8.2
4.2,8.28
4.204,8.2
4.208,8.152
4.212,8.176
4.216,8.212
4.22,8.188
4.224,8.144
4.228,8.18
4.232,8.232
4.236,8.236
4.24,8.156
4.244,8.144
4.248,8.24
4.252,8.268
4.256,8.216
4.26,8.176
4.264,8.288
4.268,8.324
4.272,8.284
4.276,8.204
4.28,8.248
4.284,8.304
4.288,8.272
4.292,8.204
4.296,8.248
4.3,8.292
4.304,8.26
4.308,8.2
4.312,8.26
4.316,8.336
4.32,8.332
4.324,8.212
4.328,8.228
4.332,8.28
4.336,8.296
4.34,8.22
4.344,8.212
4.348,8.268
4.352,8.296
4.356,8.248
4.36,8.2
4.364,8.3
4.368,8.292
4.372,8.228
4.376,8.168
4.38,8.268
4.384,8.288
4.388,8.256
4.392,8.168
4.396,8.208
4.4,8.328
4.404,8.288
4.408,8.164
4.412,8.22
4.416,8.28
4.42,8.292
4.424,8.184
4.428,8.196
4.432,8.24
4.436,8.256
4.44,8.196
4.444,8.188
4.448,8.272
4.452,8.288
4.456,8.2
4.46,8.168
4.464,8.232
4.468,8.292
4.472,8.22
4.476,8.148
4.48,8.24
4.484,8.284
4.488,8.236
4.492,8.164
4.496,8.248
4.5,8.312
4.504,8.28
4.508,8.188
4.512,8.224
4.516,8.28
4.52,8.236
4.524,8.2
4.528,8.204
4.532,8.264
4.536,8.284
4.54,8.18
4.544,8.192
4.548,8.276
4.552,8.256
4.556,8.204
4.56,8.188
4.564,8.264
4.568,8.312
4.572,8.252
4.576,8.148
4.58,8.252
4.584,8.324
4.588,8.28
4.592,8.22
4.596,8.292
4.6,8.308
4.604,8.244
4.608,8.168
4.612,8.188
4.616,8.288
4.62,8.26
4.624,8.192
4.628,8.192
4.632,8.268
4.636,8.288
4.64,8.196
4.644,8.204
4.648,8.276
4.652,8.276
4.656,8.22
4.66,8.196
4.664,8.292
4.668,8.304
4.672,8.252
4.676,8.188
4.68,8.248
4.684,8.316
4.688,8.248
4.692,8.188
4.696,8.252
4.7,8.288
4.704,8.268
4.708,8.176
4.712,8.22
4.716,8.312
4.72,8.268
4.724,8.196
4.728,8.204
4.732,8.284
4.736,8.276
4.74,8.188
4.744,8.188
4.748,8.268
4.752,8.272
4.756,8.216
4.76,8.2
4.764,8.268
4.768,8.316
4.772,8.236
4.776,8.196
4.78,8.244
4.784,8.28
4.788,8.248
4.792,8.168
4.796,8.232
4.8,8.276
4.804,8.268
4.808,8.2
4.812,8.232
4.816,8.328
4.82,8.296
4.824,8.184
4.828,8.192
4.832,8.288
4.836,8.272
4.84,8.172
4.844,8.204
4.848,8.3
4.852,8.3
4.856,8.224
4.86,8.184
4.864,8.272
4.868,8.324
4.872,8.264
4.876,8.188
4.88,8.26
4.884,8.308
4.888,8.272
4.892,8.208
4.896,8.252
4.9,8.268
4.904,8.216
4.908,8.196
4.912,8.228
4.916,8.324
4.92,8.272
4.924,8.2
4.928,8.212
4.932,8.304
4.936,8.304
4.94,8.22
4.944,8.192
4.948,8.288
4.952,8.296
4.956,8.232
4.96,8.228
4.964,8.268
4.968,8.3
4.972,8.252
4.976,8.212
4.98,8.28
4.984,8.304
4.988,8.288
4.992,8.236
4.996,8.284
5,8.336
5.004,8.28
5.008,8.208
5.012,8.256
5.016,8.316
5.02,8.304
5.024,8.276
5.028,8.292
5.032,8.372
5.036,8.424
5.04,8.34
5.044,8.332
5.048,8.4
5.052,8.416
5.056,8.384
5.06,8.392
5.064,8.528
5.068,8.588
5.072,8.548
5.076,8.516
5.08,8.576
5.084,8.604
5.088,8.528
5.092,8.452
5.096,8.52
5.1,8.544
5.104,8.424
5.108,8.328
5.112,8.336
5.116,8.356
5.12,8.284
5.124,8.192
5.128,8.18
5.132,8.268
5.136,8.28
5.14,8.188
5.144,8.18
5.148,8.228
5.152,8.268
5.156,8.216
5.16,8.108
5.164,8.06
5.168,8.02
5.172,8.1
5.176,8.3
5.18,8.976
5.184,9.844
5.188,10.616
5.192,11.24
5.196,11.132
5.2,9.956
5.204,9.128
5.208,8.46
5.212,8.176
5.216,8.208
5.22,8.284
5.224,8.188
5.228,8.148
5.232,8.188
5.236,8.172
5.24,8.136
5.244,8.128
5.248,8.208
5.252,8.196
5.256,8.096
5.26,8.072
5.264,8.136
5.268,8.168
5.272,8.092
5.276,8.076
5.28,8.156
5.284,8.216
5.288,8.144
5.292,8.08
5.296,8.132
5.3,8.216
5.304,8.144
5.308,8.076
5.312,8.152
5.316,8.224
5.32,8.176
5.324,8.092
5.328,8.116
5.332,8.18
5.336,8.152
5.34,8.108
5.344,8.076
5.348,8.156
5.352,8.176
5.356,8.112
5.36,8.084
5.364,8.148
5.368,8.216
5.372,8.152
5.376,8.096
5.38,8.136
5.384,8.196
5.388,8.192
5.392,8.12
5.396,8.168
5.4,8.232
5.404,8.204
5.408,8.14
5.412,8.184
5.416,8.244
5.42,8.24
5.424,8.184
5.428,8.196
5.432,8.288
5.436,8.264
5.44,8.208
5.444,8.184
5.448,8.292
5.452,8.324
5.456,8.28
5.46,8.288
5.464,8.38
5.468,8.42
5.472,8.416
5.476,8.392
5.48,8.472
5.484,8.508
5.488,8.452
5.492,8.484
5.496,8.588
5.5,8.66
5.504,8.66
5.508,8.656
5.512,8.74
5.516,8.84
5.52,8.836
5.524,8.816
5.528,8.856
5.532,8.972
5.536,9
5.54,8.956
5.544,8.936
5.548,9.016
5.552,9.032
5.556,8.944
5.56,8.924
5.564,8.948
5.568,8.936
5.572,8.82
5.576,8.736
5.58,8.756
5.584,8.756
5.588,8.656
5.592,8.576
5.596,8.54
5.6,8.556
5.604,8.484
5.608,8.412
5.612,8.4
5.616,8.424
5.62,8.404
5.624,8.328
5.628,8.352
5.632,8.396
5.636,8.384
5.64,8.272
5.644,8.272
5.648,8.332
5.652,8.312
5.656,8.252
5.66,8.224
5.664,8.276
5.668,8.328
5.672,8.272
5.676,8.184
5.68,8.236
5.684,8.26
5.688,8.22
5.692,8.188
5.696,8.252
5.7,8.28
5.704,8.268
5.708,8.204
5.712,8.264
5.716,8.316
5.72,8.252
5.724,8.168
5.728,8.204
5.732,8.304
5.736,8.288
5.74,8.244
5.744,8.216
5.748,8.308
5.752,8.332
5.756,8.284
5.76,8.26
5.764,8.312
5.768,8.344
5.772,8.284
5.776,8.264
5.78,8.352
5.784,8.376
5.788,8.3
5.792,8.228
5.796,8.28
5.8,8.38
5.804,8.328
5.808,8.224
5.812,8.32
5.816,8.372
5.82,8.312
5.824,8.244
5.828,8.22
5.832,8.3
5.836,8.292
5.84,8.232
5.844,8.232
5.848,8.32
5.852,8.316
5.856,8.244
5.86,8.228
5.864,8.328
5.868,8.34
5.872,8.26
5.876,8.192
5.88,8.28
5.884,8.308
5.888,8.248
5.892,8.188
5.896,8.244
5.9,8.316
5.904,8.284
5.908,8.22
5.912,8.232
5.916,8.332
5.92,8.268
5.924,8.204
5.928,8.216
5.932,8.284
5.936,8.3
5.94,8.228
5.944,8.236
5.948,8.28
5.952,8.26
5.956,8.196
5.96,8.196
5.964,8.268
5.968,8.332
5.972,8.248
5.976,8.184
5.98,8.256
5.984,8.292
5.988,8.252
5.992,8.188
5.996,8.24
6,8.28
6.004,8.252
6.008,8.18
6.012,8.216
6.016,8.28
6.02,8.26
6.024,8.208
6.028,8.204
6.032,8.272
6.036,8.288
6.04,8.2
6.044,8.2
6.048,8.284
6.052,8.32
6.056,8.248
6.06,8.204
6.064,8.248
6.068,8.288
6.072,8.22
6.076,8.172
6.08,8.236
6.084,8.272
6.088,8.224
6.092,8.2
6.096,8.228
6.1,8.296
6.104,8.248
6.108,8.172
6.112,8.228
6.116,8.28
6.12,8.264
6.124,8.188
6.128,8.252
6.132,8.288
6.136,8.284
6.14,8.24
6.144,8.196
6.148,8.268
6.152,8.296
6.156,8.236
6.16,8.192
6.164,8.264
6.168,8.312
6.172,8.228
6.176,8.2
6.18,8.26
6.184,8.28
6.188,8.2
6.192,8.156
6.196,8.244
6.2,8.308
6.204,8.284
6.208,8.192
6.212,8.196
6.216,8.32
6.22,8.292
6.224,8.228
6.228,8.216
6.232,8.304
6.236,8.284
6.24,8.208
6.244,8.188
6.248,8.276
6.252,8.288
6.256,8.256
6.26,8.244
6.264,8.272
6.268,8.308
6.272,8.24
6.276,8.204
6.28,8.232
6.284,8.312
6.288,8.24
6.292,8.168
6.296,8.236
6.3,8.272
6.304,8.244
6.308,8.188
6.312,8.26
6.316,8.34
6.32,8.296
6.324,8.228
6.328,8.232
6.332,8.312
6.336,8.272
6.34,8.192
6.344,8.192
6.348,8.3
6.352,8.308
6.356,8.264
6.36,8.22
6.364,8.3
6.368,8.292
6.372,8.208
6.376,8.152
6.38,8.26
6.384,8.308
6.388,8.216
6.392,8.176
6.396,8.24
6.4,8.324
6.404,8.296
6.408,8.232
6.412,8.252
6.416,8.312
6.42,8.288
6.424,8.224
6.428,8.204
6.432,8.276
6.436,8.3
6.44,8.244
6.444,8.26
6.448,8.28
6.452,8.292
6.456,8.248
6.46,8.22
6.464,8.288
6.468,8.292
6.472,8.236
6.476,8.184
6.48,8.284
6.484,8.344
6.488,8.288
6.492,8.236
6.496,8.308
6.5,8.396
6.504,8.356
6.508,8.304
6.512,8.332
6.516,8.384
6.52,8.372
6.524,8.396
6.528,8.452
6.532,8.564
6.536,8.568
6.54,8.516
6.544,8.532
6.548,8.608
6.552,8.568
6.556,8.46
6.56,8.444
6.564,8.54
6.568,8.544
6.572,8.36
6.576,8.244
6.58,8.272
6.584,8.292
6.588,8.216
6.592,8.192
6.596,8.232
6.6,8.268
6.604,8.224
6.608,8.192
6.612,8.204
6.616,8.252
6.62,8.216
6.624,8.112
6.628,8.072
6.632,8.032
6.636,8.028
6.64,8.128
6.644,8.356
6.648,9.06
6.652,9.904
6.656,10.612
6.66,11.196
6.664,10.88
6.668,9.74
6.672,8.96
6.676,8.38
6.68,8.196
6.684,8.196
6.688,8.212
6.692,8.14
6.696,8.176
6.7,8.196
6.704,8.156
6.708,8.088
6.712,8.136
6.716,8.176
6.72,8.124
6.724,8.064
6.728,8.088
6.732,8.176
6.736,8.128
6.74,8.064
6.744,8.076
6.748,8.14
6.752,8.132
6.756,8.096
6.76,8.068
6.764,8.148
6.768,8.172
6.772,8.088
6.776,8.06
6.78,8.136
6.784,8.176
6.788,8.108
6.792,8.064
6.796,8.12
6.8,8.148
6.804,8.096
6.808,8.004
6.812,8.076
6.816,8.18
6.82,8.14
6.824,8.116
6.828,8.108
6.832,8.144
6.836,8.14
6.84,8.088
6.844,8.108
6.848,8.196
6.852,8.208
6.856,8.052
6.86,8.032
6.864,8.144
6.868,8.196
6.872,8.124
6.876,8.08
6.88,8.164
6.884,8.204
6.888,8.16
6.892,8.128
6.896,8.184
6.9,8.252
6.904,8.204
6.908,8.16
6.912,8.232
6.916,8.264
6.92,8.244
6.924,8.244
6.928,8.276
6.932,8.332
6.936,8.376
6.94,8.3
6.944,8.292
6.948,8.42
6.952,8.456
6.956,8.456
6.96,8.456
6.964,8.548
6.968,8.604
6.972,8.608
6.976,8.628
6.98,8.712
6.984,8.8
6.988,8.744
6.992,8.756
6.996,8.852
7,8.936
7.004,8.912
7.008,8.896
7.012,8.924
7.016,8.972
7.02,8.944
7.024,8.892
7.028,8.844
7.032,8.888
7.036,8.844
7.04,8.724
7.044,8.712
7.048,8.732
7.052,8.704
7.056,8.596
7.06,8.532
7.064,8.552
7.068,8.512
7.072,8.4
7.076,8.348
7.08,8.384
7.084,8.428
7.088,8.284
7.092,8.256
7.096,8.292
7.1,8.364
7.104,8.276
7.108,8.24
7.112,8.28
7.116,8.28
7.12,8.244
7.124,8.184
7.128,8.188
7.132,8.232
7.136,8.224
7.14,8.156
7.144,8.18
7.148,8.248
7.152,8.26
7.156,8.152
7.16,8.12
7.164,8.192
7.168,8.232
7.172,8.14
7.176,8.148
7.18,8.212
7.184,8.268
7.188,8.208
7.192,8.176
7.196,8.22
7.2,8.276
7.204,8.244
7.208,8.184
7.212,8.204
7.216,8.28
7.22,8.256
7.224,8.208
7.228,8.248
7.232,8.272
7.236,8.26
7.24,8.232
7.244,8.236
7.248,8.304
7.252,8.328
7.256,8.228
7.26,8.228
7.264,8.28
7.268,8.272
7.272,8.2
7.276,8.188
7.28,8.288
7.284,8.312
7.288,8.232
7.292,8.192
7.296,8.204
7.3,8.288
7.304,8.252
7.308,8.2
7.312,8.22
7.316,8.316
7.32,8.256
7.324,8.22
7.328,8.24
7.332,8.256
7.336,8.24
7.34,8.18
7.344,8.172
7.348,8.244
7.352,8.252
7.356,8.176
7.36,8.184
7.364,8.22
7.368,8.24
7.372,8.188
7.376,8.156
7.38,8.236
7.384,8.264
7.388,8.24
7.392,8.168
7.396,8.212
7.4,8.232
7.404,8.22
7.408,8.136
7.412,8.144
7.416,8.244
7.42,8.216
7.424,8.168
7.428,8.196
7.432,8.252
7.436,8.232
7.44,8.132
7.444,8.156
7.448,8.244
7.452,8.22
7.456,8.164
7.46,8.148
7.464,8.228
7.468,8.264
7.472,8.188
7.476,8.172
7.48,8.192
7.484,8.244
7.488,8.196
7.492,8.176
7.496,8.204
7.5,8.248
7.504,8.216
7.508,8.156
7.512,8.2
7.516,8.252
7.52,8.236
7.524,8.164
7.528,8.176
7.532,8.228
7.536,8.224
7.54,8.18
7.544,8.164
7.548,8.228
7.552,8.236
7.556,8.156
7.56,8.152
7.564,8.196
7.568,8.224
7.572,8.212
7.576,8.204
7.58,8.244
7.584,8.224
7.588,8.192
7.592,8.16
7.596,8.184
7.6,8.284
7.604,8.244
7.608,8.192
7.612,8.22
7.616,8.26
7.62,8.204
7.624,8.16
7.628,8.208
7.632,8.268
7.636,8.256
7.64,8.172
7.644,8.164
7.648,8.232
7.652,8.24
7.656,8.148
7.66,8.156
7.664,8.256
7.668,8.252
7.672,8.192
7.676,8.168
7.68,8.252
7.684,8.284
7.688,8.204
7.692,8.16
7.696,8.216
7.7,8.26
7.704,8.228
7.708,8.188
7.712,8.228
7.716,8.304
7.72,8.252
7.724,8.128
7.728,8.196
7.732,8.244
7.736,8.248
7.74,8.164
7.744,8.176
7.748,8.268
7.752,8.276
7.756,8.172
7.76,8.188
7.764,8.26
7.768,8.28
7.772,8.196
7.776,8.192
7.78,8.248
7.784,8.26
7.788,8.236
7.792,8.204
7.796,8.208
7.8,8.272
7.804,8.228
7.808,8.184
7.812,8.228
7.816,8.332
7.82,8.252
7.824,8.16
7.828,8.18
7.832,8.268
7.836,8.252
7.84,8.188
7.844,8.228
7.848,8.296
7.852,8.264
7.856,8.188
7.86,8.2
7.864,8.248
7.868,8.288
7.872,8.228
7.876,8.232
7.88,8.276
7.884,8.284
7.888,8.184
7.892,8.184
7.896,8.244
7.9,8.284
7.904,8.256
7.908,8.18
7.912,8.24
7.916,8.304
7.92,8.264
7.924,8.176
7.928,8.208
7.932,8.292
7.936,8.32
7.94,8.232
7.944,8.212
7.948,8.268
7.952,8.284
7.956,8.256
7.96,8.28
7.964,8.316
7.968,8.348
7.972,8.26
7.976,8.268
7.98,8.336
7.984,8.412
7.988,8.376
7.992,8.364
7.996,8.48
8,8.564
8.004,8.532
8.008,8.504
8.012,8.528
8.016,8.6
8.02,8.532
8.024,8.428
8.028,8.468
8.032,8.552
8.036,8.488
8.04,8.34
8.044,8.312
8.048,8.36
8.052,8.292
8.056,8.204
8.06,8.152
8.064,8.24
8.068,8.256
8.072,8.152
8.076,8.164
8.08,8.188
8.084,8.212
8.088,8.148
8.092,8.12
8.096,8.104
8.1,8.04
8.104,7.976
8.108,8.108
8.112,8.396
8.116,9.12
8.12,9.944
8.124,10.68
8.128,11.324
8.132,10.896
8.136,9.732
8.14,8.928
8.144,8.408
8.148,8.196
8.152,8.196
8.156,8.228
8.16,8.184
8.164,8.16
8.168,8.184
8.172,8.084
8.176,8.088
8.18,8.164
8.184,8.16
8.188,8.108
8.192,8.06
8.196,8.124
8.2,8.16
8.204,8.1
8.208,8.072
8.212,8.104
8.216,8.148
8.22,8.116
8.224,8.044
8.228,8.124
8.232,8.192
8.236,8.152
8.24,8.088
8.244,8.06
8.248,8.148
8.252,8.12
8.256,8.076
8.26,8.076
8.264,8.156
8.268,8.176
8.272,8.092
8.276,8.072
8.28,8.128
8.284,8.184
8.288,8.08
8.292,8.044
8.296,8.092
8.3,8.176
8.304,8.108
8.308,8.056
8.312,8.108
8.316,8.196
8.32,8.144
8.324,8.08
8.328,8.14
8.332,8.208
8.336,8.212
8.34,8.14
8.344,8.164
8.348,8.208
8.352,8.216
8.356,8.132
8.36,8.128
8.364,8.2
8.368,8.256
8.372,8.18
8.376,8.168
8.38,8.216
8.384,8.284
8.388,8.224
8.392,8.276
8.396,8.312
8.4,8.392
8.404,8.352
8.408,8.312
8.412,8.36
8.416,8.448
8.42,8.452
8.424,8.464
8.428,8.528
8.432,8.588
8.436,8.592
8.44,8.564
8.444,8.644
8.448,8.772
8.452,8.812
8.456,8.764
8.46,8.776
8.464,8.864
8.468,8.932
8.472,8.88
8.476,8.868
8.48,8.952
8.484,8.98
8.488,8.92
8.492,8.896
8.496,8.948
8.5,8.948
8.504,8.88
8.508,8.76
8.512,8.768
8.516,8.788
8.52,8.7
8.524,8.584
8.528,8.56
8.532,8.568
8.536,8.492
8.54,8.408
8.544,8.396
8.548,8.42
8.552,8.428
8.556,8.328
8.56,8.304
8.564,8.308
8.568,8.356
8.572,8.264
8.576,8.28
8.58,8.316
8.584,8.352
8.588,8.26
8.592,8.22
8.596,8.232
8.6,8.3
8.604,8.232
8.608,8.196
8.612,8.22
8.616,8.296
8.62,8.264
8.624,8.176
8.628,8.228
8.632,8.256
8.636,8.228
8.64,8.16
8.644,8.168
8.648,8.244
8.652,8.264
8.656,8.196
8.66,8.212
8.664,8.248
8.668,8.288
8.672,8.248
8.676,8.212
8.68,8.252
8.684,8.304
8.688,8.252
8.692,8.228
8.696,8.264
8.7,8.328
8.704,8.296
8.708,8.24
8.712,8.304
8.716,8.336
8.72,8.284
8.724,8.232
8.728,8.304
8.732,8.344
8.736,8.328
8.74,8.24
8.744,8.264
8.748,8.312
8.752,8.312
8.756,8.284
8.76,8.284
8.764,8.328
8.768,8.304
8.772,8.22
8.776,8.22
8.78,8.268
8.784,8.288
8.788,8.244
8.792,8.188
8.796,8.288
8.8,8.348
8.804,8.24
8.808,8.192
8.812,8.236
8.816,8.332
8.82,8.284
8.824,8.188
8.828,8.228
8.832,8.28
8.836,8.228
8.84,8.2
8.844,8.208
8.848,8.26
8.852,8.268
8.856,8.188
8.86,8.224
8.864,8.284
8.868,8.292
8.872,8.18
8.876,8.2
8.88,8.264
8.884,8.288
8.888,8.2
8.892,8.192
8.896,8.244
8.9,8.276
8.904,8.208
8.908,8.192
8.912,8.216
8.916,8.3
8.92,8.24
8.924,8.18
8.928,8.204
8.932,8.244
8.936,8.24
8.94,8.176
8.944,8.212
8.948,8.292
8.952,8.264
8.956,8.172
8.96,8.2
8.964,8.28
8.968,8.296
8.972,8.208
8.976,8.172
8.98,8.232
8.984,8.26
8.988,8.212
8.992,8.196
8.996,8.232
9,8.288
9.004,8.224
9.008,8.196
9.012,8.284
9.016,8.312
9.02,8.26
9.024,8.156
9.028,8.164
9.032,8.268
9.036,8.26
9.04,8.192
9.044,8.2
9.048,8.244
9.052,8.272
9.056,8.196
9.06,8.204
9.064,8.264
9.068,8.24
9.072,8.228
9.076,8.236
9.08,8.272
9.084,8.304
9.088,8.232
9.092,8.196
9.096,8.22
9.1,8.28
9.104,8.268
9.108,8.192
9.112,8.24
9.116,8.288
9.12,8.248
9.124,8.172
9.128,8.216
9.132,8.26
9.136,8.252
9.14,8.188
9.144,8.188
9.148,8.244
9.152,8.236
9.156,8.16
9.16,8.212
9.164,8.272
9.168,8.292
9.172,8.196
9.176,8.172
9.18,8.244
9.184,8.32
9.188,8.216
9.192,8.176
9.196,8.228
9.2,8.304
9.204,8.248
9.208,8.224
9.212,8.268
9.216,8.292
9.22,8.256
9.224,8.164
9.228,8.236
9.232,8.3
9.236,8.236
9.24,8.172
9.244,8.208
9.248,8.24
9.252,8.22
9.256,8.168
9.26,8.188
9.264,8.276
9.268,8.292
9.272,8.204
9.276,8.208
9.28,8.264
9.284,8.284
9.288,8.26
9.292,8.196
9.296,8.24
9.3,8.288
9.304,8.26
9.308,8.192
9.312,8.264
9.316,8.332
9.32,8.26
9.324,8.168
9.328,8.232
9.332,8.276
9.336,8.24
9.34,8.16
9.344,8.216
9.348,8.304
9.352,8.308
9.356,8.22
9.36,8.224
9.364,8.292
9.368,8.28
9.372,8.192
9.376,8.216
9.38,8.272
9.384,8.308
9.388,8.268
9.392,8.244
9.396,8.288
9.4,8.352
9.404,8.304
9.408,8.28
9.412,8.34
9.416,8.412
9.42,8.348
9.424,8.276
9.428,8.32
9.432,8.428
9.436,8.448
9.44,8.484
9.444,8.536
9.448,8.592
9.452,8.564
9.456,8.504
9.46,8.532
9.464,8.548
9.468,8.516
9.472,8.416
9.476,8.464
9.48,8.44
9.484,8.428
9.488,8.312
9.492,8.228
9.496,8.24
9.5,8.316
9.504,8.26
9.508,8.172
9.512,8.192
9.516,8.24
9.52,8.22
9.524,8.108
9.528,8.204
9.532,8.268
9.536,8.2
9.54,7.98
9.544,7.936
9.548,8.072
9.552,8.26
9.556,8.624
9.56,9.44
9.564,10.236
9.568,11.044
9.572,11.352
9.576,10.248
9.58,9.344
9.584,8.756
9.588,8.232
9.592,8.152
9.596,8.164
9.6,8.316
9.604,8.184
9.608,8.072
9.612,8.116
9.616,8.2
9.62,8.16
9.624,8.06
9.628,8.104
9.632,8.152
9.636,8.152
9.64,8.028
9.644,8.16
9.648,8.188
9.652,8.184
9.656,8.088
9.66,8.136
9.664,8.12
9.668,8.128
9.672,8.044
9.676,8.116
9.68,8.128
9.684,8.168
9.688,8.116
9.692,8.1
9.696,8.096
9.7,8.188
9.704,8.132
9.708,8.044
9.712,8.128
9.716,8.212
9.72,8.184
9.724,8.08
9.728,8.08
9.732,8.14
9.736,8.128
9.74,8.072
9.744,8.144
9.748,8.128
9.752,8.144
9.756,8.08
9.76,8.18
9.764,8.144
9.768,8.184
9.772,8.128
9.776,8.14
9.78,8.156
9.784,8.2
9.788,8.152
9.792,8.12
9.796,8.184
9.8,8.24
9.804,8.196
9.808,8.16
9.812,8.24
9.816,8.288
9.82,8.22
9.824,8.168
9.828,8.264
9.832,8.348
9.836,8.34
9.84,8.276
9.844,8.36
9.848,8.408
9.852,8.416
9.856,8.364
9.86,8.468
9.864,8.5
9.868,8.572
9.872,8.524
9.876,8.56
9.88,8.612
9.884,8.732
9.888,8.696
9.892,8.696
9.896,8.768
9.9,8.888
9.904,8.844
9.908,8.804
9.912,8.92
9.916,8.976
9.92,8.932
9.924,8.884
9.928,8.988
9.932,8.98
9.936,8.968
9.94,8.84
9.944,8.9
9.948,8.88
9.952,8.848
9.956,8.708
9.96,8.68
9.964,8.632
9.968,8.652
9.972,8.5
9.976,8.492
9.98,8.452
9.984,8.5
9.988,8.412
9.992,8.364
9.996,8.376
10,8.432
10.004,8.356
10.008,8.28
10.012,8.296
10.016,8.348
10.02,8.28
10.024,8.216
10.028,8.316
10.032,8.3
10.036,8.292
10.04,8.172
10.044,8.252
10.048,8.264
10.052,8.288
10.056,8.192
10.06,8.276
10.064,8.264
10.068,8.284
10.072,8.212
10.076,8.192
10.08,8.212
10.084,8.276
10.088,8.212
10.092,8.192
10.096,8.232
10.1,8.312
10.104,8.244
10.108,8.172
10.112,8.236
10.116,8.308
10.12,8.264
10.124,8.196
10.128,8.304
10.132,8.328
10.136,8.296
10.14,8.22
10.144,8.34
10.148,8.336
10.152,8.348
10.156,8.256
10.16,8.316
10.164,8.312
10.168,8.332
10.172,8.284
10.176,8.268
10.18,8.312
10.184,8.396
10.188,8.288
10.192,8.232
10.196,8.26
10.2,8.32
10.204,8.252
10.208,8.2
10.212,8.256
10.216,8.312
10.22,8.284
10.224,8.212
10.228,8.308
10.232,8.328
10.236,8.312
10.24,8.212
10.244,8.308
10.248,8.28
10.252,8.264
10.256,8.188
10.26,8.284
10.264,8.256
10.268,8.296
10.272,8.212
10.276,8.216
10.28,8.236
10.284,8.284
10.288,8.244
10.292,8.188
10.296,8.248
10.3,8.304
10.304,8.232
10.308,8.192
10.312,8.248
10.316,8.292
10.32,8.28
10.324,8.184
10.328,8.264
10.332,8.264
10.336,8.268
10.34,8.188
10.344,8.272
10.348,8.248
10.352,8.26
10.356,8.172
10.36,8.248
10.364,8.256
10.368,8.312
10.372,8.212
10.376,8.188
10.38,8.22
10.384,8.26
10.388,8.172
10.392,8.188
10.396,8.212
10.4,8.256
10.404,8.204
10.408,8.124
10.412,8.236
10.416,8.28
10.42,8.22
10.424,8.184
10.428,8.272
10.432,8.264
10.436,8.276
10.44,8.184
10.444,8.276
10.448,8.276
10.452,8.288
10.456,8.196
10.46,8.24
10.464,8.236
10.468,8.272
10.472,8.204
10.476,8.18
10.48,8.228
10.484,8.228
10.488,8.196
10.492,8.184
10.496,8.228
10.5,8.268
10.504,8.22
10.508,8.124
10.512,8.232
10.516,8.26
10.52,8.212
10.524,8.152
10.528,8.252
10.532,8.292
10.536,8.256
10.54,8.148
10.544,8.236
10.548,8.24
10.552,8.264
10.556,8.208
10.56,8.216
10.564,8.204
10.568,8.264
10.572,8.2
10.576,8.188
10.58,8.22
10.584,8.276
10.588,8.196
10.592,8.188
10.596,8.252
10.6,8.296
10.604,8.236
10.608,8.156
10.612,8.228
10.616,8.276
10.62,8.244
10.624,8.148
10.628,8.244
10.632,8.252
10.636,8.256
10.64,8.208
10.644,8.252
10.648,8.26
10.652,8.22
10.656,8.18
10.66,8.212
10.664,8.176
10.668,8.268
10.672,8.212
10.676,8.22
10.68,8.284
10.684,8.288
10.688,8.204
10.692,8.18
10.696,8.228
10.7,8.264
10.704,8.252
10.708,8.16
10.712,8.252
10.716,8.288
10.72,8.232
10.724,8.208
10.728,8.284
10.732,8.252
10.736,8.252
10.74,8.18
10.744,8.292
10.748,8.292
10.752,8.292
10.756,8.168
10.76,8.26
10.764,8.296
10.768,8.304
10.772,8.2
10.776,8.184
10.78,8.216
10.784,8.252
10.788,8.192
10.792,8.164
10.796,8.276
10.8,8.276
10.804,8.212
10.808,8.168
10.812,8.248
10.816,8.268
10.82,8.244
10.824,8.144
10.828,8.272
10.832,8.3
10.836,8.26
10.84,8.168
10.844,8.28
10.848,8.288
10.852,8.308
10.856,8.224
10.86,8.24
10.864,8.24
10.868,8.308
10.872,8.256
10.876,8.212
10.88,8.296
10.884,8.352
10.888,8.32
10.892,8.256
10.896,8.308
10.9,8.364
10.904,8.344
10.908,8.28
10.912,8.408
10.916,8.5
10.92,8.516
10.924,8.448
10.928,8.572
10.932,8.548
10.936,8.556
10.94,8.504
10.944,8.544
10.948,8.496
10.952,8.512
10.956,8.396
10.96,8.372
10.964,8.356
10.968,8.312
10.972,8.18
10.976,8.176
10.98,8.236
10.984,8.256
10.988,8.18
10.992,8.112
10.996,8.224
11,8.264
11.004,8.232
11.008,8.116
11.012,8.172
11.016,8.14
11.02,7.984
11.024,7.904
11.028,8.18
11.032,8.416
11.036,9.064
11.04,9.816
11.044,10.7
11.048,11.32
11.052,10.852
11.056,9.66
11.06,8.936
11.064,8.428
11.068,8.196
11.072,8.1
11.076,8.216
11.08,8.196
11.084,8.176
11.088,8.112
11.092,8.04
11.096,8.116
11.1,8.148
11.104,8.1
11.108,8.028
11.112,8.16
11.116,8.144
11.12,8.124
11.124,8.056
11.128,8.112
11.132,8.148
11.136,8.136
11.14,8.048
11.144,8.136
11.148,8.148
11.152,8.16
11.156,8.088
11.16,8.088
11.164,8.1
11.168,8.124
11.172,8.06
11.176,8.088
11.18,8.124
11.184,8.168
11.188,8.064
11.192,8.032
11.196,8.136
11.2,8.2
11.204,8.112
11.208,8.04
11.212,8.148
11.216,8.172
11.22,8.148
11.224,8.036
11.228,8.156
11.232,8.144
11.236,8.14
11.24,8.08
11.244,8.172
11.248,8.14
11.252,8.16
11.256,8.092
11.26,8.14
11.264,8.148
11.268,8.188
11.272,8.12
11.276,8.108
11.28,8.212
11.284,8.264
11.288,8.164
11.292,8.152
11.296,8.24
11.3,8.268
11.304,8.24
11.308,8.176
11.312,8.312
11.316,8.328
11.32,8.324
11.324,8.312
11.328,8.432
11.332,8.412
11.336,8.408
11.34,8.404
11.344,8.488
11.348,8.556
11.352,8.62
11.356,8.54
11.36,8.556
11.364,8.652
11.368,8.744
11.372,8.684
11.376,8.696
11.38,8.82
11.384,8.888
11.388,8.844
11.392,8.82
11.396,8.944
11.4,8.94
11.404,8.924
11.408,8.896
11.412,8.984
11.416,8.94
11.42,8.888
11.424,8.752
11.428,8.828
11.432,8.76
11.436,8.696
11.44,8.576
11.444,8.644
11.448,8.596
11.452,8.576
11.456,8.436
11.46,8.412
11.464,8.424
11.468,8.408
11.472,8.328
11.476,8.268
11.48,8.344
11.484,8.344
11.488,8.244
11.492,8.18
11.496,8.308
11.5,8.272
11.504,8.236
11.508,8.156
11.512,8.276
11.516,8.28
11.52,8.272
11.524,8.176
11.528,8.268
11.532,8.252
11.536,8.244
11.54,8.18
11.544,8.224
11.548,8.232
11.552,8.252
11.556,8.172
11.56,8.18
11.564,8.26
11.568,8.288
11.572,8.204
11.576,8.168
11.58,8.276
11.584,8.296
11.588,8.208
11.592,8.176
11.596,8.252
11.6,8.28
11.604,8.224
11.608,8.168
11.612,8.32
11.616,8.32
11.62,8.324
11.624,8.232
11.628,8.32
11.632,8.304
11.636,8.312
11.64,8.256
11.644,8.276
11.648,8.3
11.652,8.316
11.656,8.248
11.66,8.236
11.664,8.32
11.668,8.356
11.672,8.24
11.676,8.228
11.68,8.328
11.684,8.34
11.688,8.244
11.692,8.224
11.696,8.308
11.7,8.304
11.704,8.236
11.708,8.196
11.712,8.316
11.716,8.284
11.72,8.276
11.724,8.196
11.728,8.308
11.732,8.284
11.736,8.252
11.74,8.18
11.744,8.24
11.748,8.252
11.752,8.288
11.756,8.2
11.76,8.192
11.764,8.256
11.768,8.26
11.772,8.164
11.776,8.168
11.78,8.272
11.784,8.256
11.788,8.188
11.792,8.164
11.796,8.292
11.8,8.268
11.804,8.228
11.808,8.168
11.812,8.288
11.816,8.272
11.82,8.264
11.824,8.188
11.828,8.236
11.832,8.236
11.836,8.268
11.84,8.216
11.844,8.24
11.848,8.252
11.852,8.272
11.856,8.176
11.86,8.188
11.864,8.256
11.868,8.26
11.872,8.172
11.876,8.132
11.88,8.248
11.884,8.276
11.888,8.228
11.892,8.168
11.896,8.288
11.9,8.26
11.904,8.216
11.908,8.16
11.912,8.26
11.916,8.244
11.92,8.22
11.924,8.156
11.928,8.244
11.932,8.252
11.936,8.252
11.94,8.176
11.944,8.212
11.948,8.252
11.952,8.248
11.956,8.2
11.96,8.18
11.964,8.232
11.968,8.248
11.972,8.16
11.976,8.14
11.98,8.264
11.984,8.264
11.988,8.204
11.992,8.176
11.996,8.308
12,8.236
12.004,8.252
12.008,8.224
12.012,8.292
12.016,8.256
12.02,8.236
12.024,8.208
12.028,8.304
12.032,8.244
12.036,8.212
12.04,8.168
12.044,8.192
12.048,8.232
12.052,8.252
12.056,8.196
12.06,8.2
12.064,8.272
12.068,8.268
12.072,8.192
12.076,8.172
12.08,8.288
12.084,8.264
12.088,8.2
12.092,8.168
12.096,8.304
12.1,8.272
12.104,8.216
12.108,8.164
12.112,8.296
12.116,8.28
12.12,8.24
12.124,8.168
12.128,8.272
12.132,8.284
12.136,8.316
12.14,8.224
12.144,8.22
12.148,8.252
12.152,8.26
12.156,8.2
12.16,8.232
12.164,8.3
12.168,8.288
12.172,8.2
12.176,8.152
12.18,8.288
12.184,8.296
12.188,8.236
12.192,8.172
12.196,8.308
12.2,8.276
12.204,8.236
12.208,8.176
12.212,8.276
12.216,8.26
12.22,8.26
12.224,8.204
12.228,8.288
12.232,8.272
12.236,8.268
12.24,8.188
12.244,8.24
12.248,8.268
12.252,8.252
12.256,8.168
12.26,8.184
12.264,8.28
12.268,8.288
12.272,8.184
12.276,8.156
12.28,8.26
12.284,8.288
12.288,8.236
12.292,8.196
12.296,8.296
12.3,8.264
12.304,8.236
12.308,8.18
12.312,8.296
12.316,8.264
12.32,8.26
12.324,8.172
12.328,8.268
12.332,8.268
12.336,8.284
12.34,8.252
12.344,8.296
12.348,8.332
12.352,8.352
12.356,8.288
12.36,8.288
12.364,8.408
12.368,8.388
12.372,8.344
12.376,8.372
12.38,8.568
12.384,8.568
12.388,8.484
12.392,8.472
12.396,8.576
12.4,8.568
12.404,8.496
12.408,8.42
12.412,8.532
12.416,8.488
12.42,8.404
12.424,8.26
12.428,8.292
12.432,8.296
12.436,8.272
12.44,8.184
12.444,8.18
12.448,8.208
12.452,8.2
12.456,8.124
12.46,8.136
12.464,8.232
12.468,8.232
12.472,8.132
12.476,8.108
12.48,8.104
12.484,7.988
12.488,8.004
12.492,8.188
12.496,8.724
12.5,9.488
12.504,10.316
12.508,11.04
12.512,11.46
12.516,10.212
12.52,9.336
12.524,8.648
12.528,8.24
12.532,8.144
12.536,8.236
12.54,8.224
12.544,8.176
12.548,8.184
12.552,8.152
12.556,8.072
12.56,8.076
12.564,8.172
12.568,8.124
12.572,8.064
12.576,8.056
12.58,8.188
12.584,8.144
12.588,8.096
12.592,8.068
12.596,8.188
12.6,8.136
12.604,8.112
12.608,8.052
12.612,8.132
12.616,8.1
12.62,8.076
12.624,8.024
12.628,8.112
12.632,8.132
12.636,8.14
12.64,8.076
12.644,8.06
12.648,8.12
12.652,8.12
12.656,8.064
12.66,8.036
12.664,8.14
12.668,8.112
12.672,8.052
12.676,8.056
12.68,8.176
12.684,8.136
12.688,8.08
12.692,8.056
12.696,8.188
12.7,8.128
12.704,8.1
12.708,8.068
12.712,8.184
12.716,8.18
12.72,8.168
12.724,8.08
12.728,8.132
12.732,8.136
12.736,8.16
12.74,8.072
12.744,8.136
12.748,8.204
12.752,8.18
12.756,8.148
12.76,8.16
12.764,8.264
12.768,8.26
12.772,8.224
12.776,8.244
12.78,8.364
12.784,8.348
12.788,8.312
12.792,8.272
12.796,8.456
12.8,8.412
12.804,8.432
12.808,8.408
12.812,8.548
12.816,8.588
12.82,8.604
12.824,8.572
12.828,8.664
12.832,8.712
12.836,8.768
12.84,8.712
12.844,8.796
12.848,8.876
12.852,8.876
12.856,8.84
12.86,8.884
12.864,9.004
12.868,8.948
12.872,8.884
12.876,8.848
12.88,8.964
12.884,8.884
12.888,8.796
12.892,8.724
12.896,8.764
12.9,8.684
12.904,8.592
12.908,8.512
12.912,8.588
12.916,8.496
12.92,8.444
12.924,8.356
12.928,8.372
12.932,8.388
12.936,8.368
12.94,8.256
12.944,8.264
12.948,8.348
12.952,8.32
12.956,8.236
12.96,8.208
12.964,8.296
12.968,8.268
12.972,8.2
12.976,8.188
12.98,8.304
12.984,8.252
12.988,8.22
12.992,8.208
12.996,8.26
13,8.216
13.004,8.208
13.008,8.096
13.012,8.232
13.016,8.244
13.02,8.216
13.024,8.136
13.028,8.188
13.032,8.22
13.036,8.168
13.04,8.164
13.044,8.176
13.048,8.288
13.052,8.248
13.056,8.192
13.06,8.172
13.064,8.284
13.068,8.232
13.072,8.188
13.076,8.188
13.08,8.34
13.084,8.26
13.088,8.204
13.092,8.192
13.096,8.3
13.1,8.32
13.104,8.272
13.108,8.22
13.112,8.292
13.116,8.288
13.12,8.244
13.124,8.2
13.128,8.252
13.132,8.284
13.136,8.252
13.14,8.184
13.144,8.228
13.148,8.304
13.152,8.256
13.156,8.16
13.16,8.128
13.164,8.276
13.168,8.26
13.172,8.188
13.176,8.168
13.18,8.284
13.184,8.252
13.188,8.192
13.192,8.164
13.196,8.24
13.2,8.232
13.204,8.184
13.208,8.18
13.212,8.196
13.216,8.228
13.22,8.188
13.224,8.128
13.228,8.188
13.232,8.272
13.236,8.212
13.24,8.148
13.244,8.176
13.248,8.264
13.252,8.212
13.256,8.16
13.26,8.18
13.264,8.228
13.268,8.212
13.272,8.128
13.276,8.168
13.28,8.26
13.284,8.244
13.288,8.152
13.292,8.128
13.296,8.188
13.3,8.268
13.304,8.188
13.308,8.12
13.312,8.192
13.316,8.256
13.32,8.208
13.324,8.136
13.328,8.188
13.332,8.252
13.336,8.24
13.34,8.188
13.344,8.184
13.348,8.232
13.352,8.196
13.356,8.132
13.36,8.18
13.364,8.256
13.368,8.22
13.372,8.156
13.376,8.128
13.38,8.248
13.384,8.232
13.388,8.18
13.392,8.148
13.396,8.22
13.4,8.264
13.404,8.196
13.408,8.164
13.412,8.228
13.416,8.264
13.42,8.172
13.424,8.136
13.428,8.184
13.432,8.232
13.436,8.204
13.44,8.132
13.444,8.188
13.448,8.256
13.452,8.22
13.456,8.148
13.46,8.164
13.464,8.232
13.468,8.248
13.472,8.176
13.476,8.144
13.48,8.224
13.484,8.256
13.488,8.184
13.492,8.152
13.496,8.192
13.5,8.24
13.504,8.196
13.508,8.156
13.512,8.204
13.516,8.268
13.52,8.204
13.524,8.116
13.528,8.216
13.532,8.288
13.536,8.22
13.54,8.152
13.544,8.18
13.548,8.248
13.552,8.248
13.556,8.18
13.56,8.188
13.564,8.28
13.568,8.244
13.572,8.156
13.576,8.164
13.58,8.232
13.584,8.224
13.588,8.184
13.592,8.164
13.596,8.252
13.6,8.248
13.604,8.2
13.608,8.152
13.612,8.2
13.616,8.244
13.62,8.216
13.624,8.152
13.628,8.204
13.632,8.276
13.636,8.232
13.64,8.176
13.644,8.196
13.648,8.26
13.652,8.22
13.656,8.152
13.66,8.188
13.664,8.296
13.668,8.244
13.672,8.172
13.676,8.184
13.68,8.276
13.684,8.3
13.688,8.192
13.692,8.16
13.696,8.228
13.7,8.272
13.704,8.192
13.708,8.188
13.712,8.268
13.716,8.32
13.72,8.208
13.724,8.168
13.728,8.232
13.732,8.28
13.736,8.236
13.74,8.156
13.744,8.208
13.748,8.296
13.752,8.24
13.756,8.16
13.76,8.188
13.764,8.268
13.768,8.264
13.772,8.2
13.776,8.24
13.78,8.308
13.784,8.292
13.788,8.212
13.792,8.196
13.796,8.264
13.8,8.3
13.804,8.236
13.808,8.196
13.812,8.284
13.816,8.376
13.82,8.3
13.824,8.268
13.828,8.324
13.832,8.372
13.836,8.352
13.84,8.3
13.844,8.388
13.848,8.432
13.852,8.5
13.856,8.488
13.86,8.488
13.864,8.596
13.868,8.568
13.872,8.52
13.876,8.48
13.88,8.568
13.884,8.524
13.888,8.476
13.892,8.42
13.896,8.444
13.9,8.42
13.904,8.316
13.908,8.24
13.912,8.284
13.916,8.32
13.92,8.256
13.924,8.18
13.928,8.216
13.932,8.264
13.936,8.208
13.94,8.148
13.944,8.192
13.948,8.252
13.952,8.196
13.956,7.984
13.96,7.96
13.964,8.168
13.968,8.352
13.972,8.832
13.976,9.648
13.98,10.532
13.984,11.248
13.988,11.276
13.992,9.988
13.996,9.268
14,8.672
14.004,8.188
14.008,8.1
14.012,8.268
14.016,8.36
14.02,8.26
14.024,8.152
14.028,8.184
14.032,8.24
14.036,8.156
14.04,8.12
14.044,8.144
14.048,8.212
14.052,8.156
14.056,8.12
14.06,8.124
14.064,8.2
14.068,8.196
14.072,8.124
14.076,8.152
14.08,8.172
14.084,8.168
14.088,8.112
14.092,8.108
14.096,8.152
14.1,8.196
14.104,8.14
14.108,8.04
14.112,8.152
14.116,8.2
14.12,8.16
14.124,8.08
14.128,8.14
14.132,8.188
14.136,8.12
14.14,8.052
14.144,8.104
14.148,8.212
14.152,8.192
14.156,8.132
14.16,8.156
14.164,8.192
14.168,8.14
14.172,8.112
14.176,8.116
14.18,8.192
14.184,8.192
14.188,8.168
14.192,8.16
14.196,8.208
14.2,8.224
14.204,8.156
14.208,8.136
14.212,8.232
14.216,8.256
14.22,8.228
14.224,8.172
14.228,8.236
14.232,8.284
14.236,8.256
14.24,8.232
14.244,8.268
14.248,8.368
14.252,8.328
14.256,8.26
14.26,8.324
14.264,8.46
14.268,8.444
14.272,8.388
14.276,8.44
14.28,8.54
14.284,8.564
14.288,8.528
14.292,8.568
14.296,8.652
14.3,8.716
14.304,8.708
14.308,8.672
14.312,8.788
14.316,8.884
14.32,8.876
14.324,8.896
14.328,8.944
14.332,9.008
14.336,8.964
14.34,8.912
14.344,8.956
14.348,9.008
14.352,8.932
14.356,8.868
14.36,8.868
14.364,8.916
14.368,8.828
14.372,8.72
14.376,8.672
14.38,8.704
14.384,8.616
14.388,8.548
14.392,8.476
14.396,8.52
14.4,8.464
14.404,8.412
14.408,8.324
14.412,8.392
14.416,8.384
14.42,8.344
14.424,8.26
14.428,8.328
14.432,8.344
14.436,8.292
14.44,8.232
14.444,8.276
14.448,8.348
14.452,8.276
14.456,8.22
14.46,8.236
14.464,8.332
14.468,8.256
14.472,8.2
14.476,8.216
14.48,8.316
14.484,8.256
14.488,8.216
14.492,8.188
14.496,8.256
14.5,8.272
14.504,8.22
14.508,8.204
14.512,8.284
14.516,8.316
14.52,8.244
14.524,8.18
14.528,8.252
14.532,8.308
14.536,8.284
14.54,8.228
14.544,8.288
14.548,8.356
14.552,8.272
14.556,8.22
14.56,8.256
14.564,8.356
14.568,8.288
14.572,8.248
14.576,8.224
14.58,8.38
14.584,8.32
14.588,8.276
14.592,8.244
14.596,8.316
14.6,8.32
14.604,8.26
14.608,8.228
14.612,8.296
14.616,8.34
14.62,8.316
14.624,8.244
14.628,8.264
14.632,8.316
14.636,8.272
14.64,8.212
14.644,8.26
14.648,8.364
14.652,8.252
14.656,8.168
14.66,8.244
14.664,8.344
14.668,8.284
14.672,8.244
14.676,8.228
14.68,8.304
14.684,8.244
14.688,8.248
14.692,8.188
14.696,8.256
14.7,8.252
14.704,8.236
14.708,8.184
14.712,8.248
14.716,8.284
14.72,8.236
14.724,8.208
14.728,8.224
14.732,8.324
14.736,8.232
14.74,8.2
14.744,8.224
14.748,8.324
14.752,8.256
14.756,8.22
14.76,8.212
14.764,8.296
14.768,8.24
14.772,8.196
14.776,8.228
14.78,8.324
14.784,8.236
14.788,8.2
14.792,8.172
14.796,8.28
14.8,8.252
14.804,8.2
14.808,8.184
14.812,8.248
14.816,8.304
14.82,8.236
14.824,8.192
14.828,8.216
14.832,8.312
14.836,8.252
14.84,8.184
14.844,8.244
14.848,8.308
14.852,8.224
14.856,8.196
14.86,8.212
14.864,8.3
14.868,8.224
14.872,8.192
14.876,8.18
14.88,8.26
14.884,8.228
14.888,8.216
14.892,8.212
14.896,8.268
14.9,8.252
14.904,8.22
14.908,8.176
14.912,8.232
14.916,8.26
14.92,8.228
14.924,8.204
14.928,8.268
14.932,8.276
14.936,8.224
14.94,8.164
14.944,8.224
14.948,8.356
14.952,8.228
14.956,8.208
14.96,8.204
14.964,8.288
14.968,8.232
14.972,8.184
14.976,8.188
14.98,8.296
14.984,8.236
14.988,8.232
14.992,8.196
14.996,8.276
15,8.28
15.004,8.244
15.008,8.208
15.012,8.26
15.016,8.264
15.02,8.224
15.024,8.148
15.028,8.232
15.032,8.328
15.036,8.228
15.04,8.204
15.044,8.216
15.048,8.352
15.052,8.232
15.056,8.2
15.06,8.22
15.064,8.336
15.068,8.248
15.072,8.18
15.076,8.192
15.08,8.268
15.084,8.24
15.088,8.244
15.092,8.188
15.096,8.3
15.1,8.296
15.104,8.244
15.108,8.196
15.112,8.208
15.116,8.3
15.12,8.244
15.124,8.188
15.128,8.26
15.132,8.316
15.136,8.24
15.14,8.192
15.144,8.24
15.148,8.324
15.152,8.232
15.156,8.196
15.16,8.204
15.164,8.32
15.168,8.264
15.172,8.236
15.176,8.216
15.18,8.304
15.184,8.264
15.188,8.22
15.192,8.184
15.196,8.28
15.2,8.276
15.204,8.26
15.208,8.24
15.212,8.284
15.216,8.284
15.22,8.216
15.224,8.2
15.228,8.216
15.232,8.344
15.236,8.236
15.24,8.212
15.244,8.24
15.248,8.348
15.252,8.208
15.256,8.188
15.26,8.224
15.264,8.324
15.268,8.252
15.272,8.232
15.276,8.24
15.28,8.324
15.284,8.308
15.288,8.296
15.292,8.296
15.296,8.368
15.3,8.376
15.304,8.344
15.308,8.344
15.312,8.412
15.316,8.448
15.32,8.416
15.324,8.452
15.328,8.516
15.332,8.624
15.336,8.536
15.34,8.492
15.344,8.54
15.348,8.596
15.352,8.54
15.356,8.44
15.36,8.412
15.364,8.448
15.368,8.344
15.372,8.26
15.376,8.248
15.38,8.288
15.384,8.208
15.388,8.192
15.392,8.164
15.396,8.236
15.4,8.248
15.404,8.184
15.408,8.116
15.412,8.188
15.416,8.256
15.42,8.128
15.424,7.944
15.428,7.96
15.432,8.196
15.436,8.336
15.44,8.876
15.444,9.728
15.448,10.588
15.452,11.156
15.456,10.968
15.46,9.78
15.464,9.12
15.468,8.464
15.472,8.1
15.476,8.1
15.48,8.336
15.484,8.28
15.488,8.18
15.492,8.112
15.496,8.196
15.5,8.204
15.504,8.12
15.508,8.076
15.512,8.116
15.516,8.184
15.52,8.12
15.524,8.084
15.528,8.092
15.532,8.188
15.536,8.104
15.54,8.064
15.544,8.12
15.548,8.188
15.552,8.084
15.556,8.064
15.56,8.104
15.564,8.176
15.568,8.124
15.572,8.06
15.576,8.076
15.58,8.14
15.584,8.104
15.588,8.08
15.592,8.06
15.596,8.112
15.6,8.14
15.604,8.108
15.608,8.084
15.612,8.16
15.616,8.172
15.62,8.1
15.624,8.056
15.628,8.112
15.632,8.2
15.636,8.116
15.64,8.048
15.644,8.108
15.648,8.196
15.652,8.144
15.656,8.108
15.66,8.12
15.664,8.216
15.668,8.18
15.672,8.12
15.676,8.096
15.68,8.148
15.684,8.168
15.688,8.144
15.692,8.156
15.696,8.236
15.7,8.276
15.704,8.192
15.708,8.172
15.712,8.256
15.716,8.332
15.72,8.244
15.724,8.248
15.728,8.332
15.732,8.468
15.736,8.404
15.74,8.38
15.744,8.424
15.748,8.508
15.752,8.464
15.756,8.488
15.76,8.544
15.764,8.648
15.768,8.616
15.772,8.608
15.776,8.68
15.78,8.808
15.784,8.832
15.788,8.812
15.792,8.828
15.796,8.884
15.8,8.936
15.804,8.904
15.808,8.868
15.812,8.924
15.816,9.008
15.82,8.876
15.824,8.832
15.828,8.844
15.832,8.876
15.836,8.732
15.84,8.648
15.844,8.66
15.848,8.712
15.852,8.56
15.856,8.424
15.86,8.444
15.864,8.508
15.868,8.448
15.872,8.388
15.876,8.332
15.88,8.38
15.884,8.336
15.888,8.292
15.892,8.268
15.896,8.312
15.9,8.344
15.904,8.232
15.908,8.228
15.912,8.284
15.916,8.348
15.92,8.22
15.924,8.164
15.928,8.196
15.932,8.328
15.936,8.22
15.94,8.156
15.944,8.168
15.948,8.272
15.952,8.216
15.956,8.18
15.96,8.192
15.964,8.264
15.968,8.204
15.972,8.192
15.976,8.236
15.98,8.272
15.984,8.244
15.988,8.22
15.992,8.2
15.996,8.26
16,8.272
16.004,8.2
16.008,8.192
16.012,8.264
16.016,8.364
16.02,8.24
16.024,8.228
16.028,8.288
16.032,8.368
16.036,8.264
16.04,8.244
16.044,8.264
16.048,8.34
16.052,8.24
16.056,8.216
16.06,8.268
16.064,8.328
16.068,8.268
16.072,8.232
16.076,8.208
16.08,8.292
16.084,8.26
16.088,8.232
16.092,8.192
16.096,8.292
16.1,8.3
16.104,8.22
16.108,8.212
16.112,8.268
16.116,8.348
16.12,8.236
16.124,8.2
16.128,8.248
16.132,8.34
16.136,8.208
16.14,8.16
16.144,8.2
16.148,8.316
16.152,8.216
16.156,8.204
16.16,8.212
16.164,8.284
16.168,8.22
16.172,8.172
16.176,8.188
16.18,8.244
16.184,8.224
16.188,8.176
16.192,8.184
16.196,8.264
16.2,8.296
16.204,8.2
16.208,8.192
16.212,8.28
16.216,8.316
16.22,8.18
16.224,8.184
16.228,8.244
16.232,8.372
16.236,8.22
16.24,8.14
16.244,8.16
16.248,8.28
16.252,8.208
16.256,8.192
16.26,8.208
16.264,8.244
16.268,8.196
16.272,8.176
16.276,8.192
16.28,8.236
16.284,8.248
16.288,8.144
16.292,8.172
16.296,8.232
16.3,8.284
16.304,8.188
16.308,8.164
16.312,8.204
16.316,8.3
16.32,8.204
16.324,8.188
16.328,8.232
16.332,8.288
16.336,8.192
16.34,8.192
16.344,8.236
16.348,8.304
16.352,8.192
16.356,8.148
16.36,8.184
16.364,8.232
16.368,8.2
16.372,8.152
16.376,8.156
16.38,8.256
16.384,8.252
16.388,8.184
16.392,8.16
16.396,8.232
16.4,8.268
16.404,8.156
16.408,8.136
16.412,8.232
16.416,8.304
16.42,8.22
16.424,8.176
16.428,8.24
16.432,8.296
16.436,8.184
16.44,8.156
16.444,8.212
16.448,8.304
16.452,8.208
16.456,8.192
16.46,8.22
16.464,8.232
16.468,8.2
16.472,8.164
16.476,8.156
16.48,8.208
16.484,8.232
16.488,8.184
16.492,8.196
16.496,8.252
16.5,8.276
16.504,8.18
16.508,8.148
16.512,8.22
16.516,8.296
16.52,8.168
16.524,8.192
16.528,8.22
16.532,8.324
16.536,8.192
16.54,8.152
16.544,8.188
16.548,8.276
16.552,8.2
16.556,8.184
16.56,8.22
16.564,8.3
16.568,8.216
16.572,8.172
16.576,8.204
16.58,8.276
16.584,8.26
16.588,8.16
16.592,8.192
16.596,8.24
16.6,8.308
16.604,8.18
16.608,8.136
16.612,8.252
16.616,8.3
16.62,8.208
16.624,8.192
16.628,8.232
16.632,8.28
16.636,8.212
16.64,8.192
16.644,8.228
16.648,8.26
16.652,8.204
16.656,8.196
16.66,8.208
16.664,8.252
16.668,8.2
16.672,8.148
16.676,8.176
16.68,8.288
16.684,8.28
16.688,8.2
16.692,8.204
16.696,8.28
16.7,8.292
16.704,8.184
16.708,8.24
16.712,8.312
16.716,8.412
16.72,8.276
16.724,8.284
16.728,8.36
16.732,8.432
16.736,8.348
16.74,8.384
16.744,8.492
16.748,8.56
16.752,8.488
16.756,8.432
16.76,8.404
16.764,8.544
16.768,8.464
16.772,8.404
16.776,8.372
16.78,8.432
16.784,8.396
16.788,8.252
16.792,8.224
16.796,8.2
16.8,8.256
16.804,8.108
16.808,8.116
16.812,8.168
16.816,8.256
16.82,8.128
16.824,8.112
16.828,8.14
16.832,8.244
16.836,8.18
16.84,8.096
16.844,8
16.848,7.956
16.852,8
16.856,8.152
16.86,8.508
16.864,9.34
16.868,10.108
16.872,10.764
16.876,11.26
16.88,10.356
16.884,9.392
16.888,8.588
16.892,8.104
16.896,8.084
16.9,8.196
16.904,8.132
16.908,8.06
16.912,8.116
16.916,8.192
16.92,8.072
16.924,8.02
16.928,8.06
16.932,8.128
16.936,8.072
16.94,8.036
16.944,8.104
16.948,8.16
16.952,8.036
16.956,8.04
16.96,8.06
16.964,8.152
16.968,8.112
16.972,8.004
16.976,8.044
16.98,8.1
16.984,8.128
16.988,7.996
16.992,8.036
16.996,8.1
17,8.188
17.004,8.072
17.008,8.056
17.012,8.084
17.016,8.128
17.02,7.992
17.024,8.024
17.028,8.112
17.032,8.18
17.036,8.048
17.04,8.044
17.044,8.14
17.048,8.152
17.052,8.06
17.056,8
17.06,8.028
17.064,8.092
17.068,8.076
17.072,7.988
17.076,8.092
17.08,8.108
17.084,8.116
17.088,8.028
17.092,8.06
17.096,8.128
17.1,8.248
17.104,8.072
17.108,8.092
17.112,8.156
17.116,8.236
17.12,8.096
17.124,8.104
17.128,8.144
17.132,8.208
17.136,8.22
17.14,8.212
17.144,8.256
17.148,8.34
17.152,8.324
17.156,8.248
17.16,8.308
17.164,8.404
17.168,8.404
17.172,8.392
17.176,8.44
17.18,8.572
17.184,8.544
17.188,8.492
17.192,8.516
17.196,8.692
17.2,8.736
17.204,8.7
17.208,8.692
17.212,8.772
17.216,8.908
17.22,8.844
17.224,8.772
17.228,8.848
17.232,8.92
17.236,8.872
17.24,8.78
17.244,8.788
17.248,8.804
17.252,8.756
17.256,8.628
17.26,8.644
17.264,8.716
17.268,8.596
17.272,8.44
17.276,8.5
17.28,8.5
17.284,8.424
17.288,8.268
17.292,8.264
17.296,8.372
17.3,8.344
17.304,8.232
17.308,8.196
17.312,8.272
17.316,8.312
17.32,8.228
17.324,8.18
17.328,8.236
17.332,8.224
17.336,8.176
17.34,8.092
17.344,8.164
17.348,8.232
17.352,8.228
17.356,8.168
17.36,8.1
17.364,8.192
17.368,8.252
17.372,8.14
17.376,8.128
17.38,8.244
17.384,8.244
17.388,8.152
17.392,8.14
17.396,8.208
17.4,8.24
17.404,8.108
17.408,8.136
17.412,8.232
17.416,8.308
17.42,8.244
17.424,8.144
17.428,8.192
17.432,8.244
17.436,8.208
17.44,8.16
17.444,8.208
17.448,8.284
17.452,8.284
17.456,8.196
17.46,8.236
17.464,8.324
17.468,8.26
17.472,8.168
17.476,8.236
17.48,8.272
17.484,8.232
17.488,8.252
17.492,8.22
17.496,8.272
17.5,8.284
17.504,8.228
17.508,8.16
17.512,8.22
17.516,8.292
17.52,8.204
17.524,8.196
17.528,8.216
17.532,8.296
17.536,8.316
17.54,8.212
17.544,8.244
17.548,8.312
17.552,8.268
17.556,8.132
17.56,8.168
17.564,8.236
17.568,8.28
17.572,8.216
17.576,8.244
17.58,8.308
17.584,8.3
17.588,8.192
17.592,8.2
17.596,8.232
17.6,8.18
17.604,8.14
17.608,8.208
17.612,8.284
17.616,8.292
17.62,8.292
17.624,8.248
17.628,8.296
17.632,8.408
17.636,8.284
17.64,8.3
17.644,8.34
17.648,8.28
17.652,8.216
17.656,8.132
17.66,8.176
17.664,8.276
17.668,8.248
17.672,8.244
17.676,8.22
17.68,8.216
17.684,8.26
17.688,8.232
17.692,8.2
17.696,8.316
17.7,8.38
17.704,8.26
17.708,8.208
17.712,8.292
17.716,8.328
17.72,8.3
17.724,8.188
17.728,8.216
17.732,8.324
17.736,8.248
17.74,8.24
17.744,8.304
17.748,8.424
17.752,8.228
17.756,8.184
17.76,8.256
17.764,8.312
17.768,8.304
17.772,8.192
17.776,8.224
17.78,8.344
17.784,8.34
17.788,8.248
17.792,8.232
17.796,8.276
17.8,8.344
17.804,8.272
17.808,8.208
17.812,8.304
17.816,8.356
17.82,8.308
17.824,8.232
17.828,8.268
17.832,8.284
17.836,8.252
17.84,8.176
17.844,8.268
17.848,8.324
17.852,8.312
17.856,8.272
17.86,8.324
17.864,8.372
17.868,8.344
17.872,8.204
17.876,8.28
17.88,8.416
17.884,8.284
17.888,8.228
17.892,8.252
17.896,8.228
17.9,8.3
17.904,8.26
17.908,8.252
17.912,8.324
17.916,8.356
17.92,8.304
17.924,8.24
17.928,8.332
17.932,8.388
17.936,8.328
17.94,8.244
17.944,8.328
17.948,8.36
17.952,8.356
17.956,8.26
17.96,8.284
17.964,8.368
17.968,8.364
17.972,8.276
17.976,8.3
17.98,8.352
17.984,8.36
17.988,8.308
17.992,8.284
17.996,8.376
18,8.412
18.004,8.3
18.008,8.28
18.012,8.38
18.016,8.428
18.02,8.368
18.024,8.32
18.028,8.38
18.032,8.46
18.036,8.408
18.04,8.328
18.044,8.432
18.048,8.472
18.052,8.436
18.056,8.308
18.06,8.316
18.064,8.38
18.068,8.388
18.072,8.304
18.076,8.372
18.08,8.412
18.084,8.44
18.088,8.344
18.092,8.436
18.096,8.58
18.1,8.684
18.104,8.692
18.108,8.576
18.112,8.608
18.116,8.628
18.12,8.524
18.124,8.492
18.128,8.692
18.132,8.892
18.136,8.828
18.14,8.676
18.144,8.756
18.148,8.916
18.152,8.96
18.156,8.756
18.16,8.448
18.164,8.264
18.168,8.132
18.172,8.108
18.176,8.268
18.18,8.44
18.184,8.492
18.188,8.404
18.192,8.34
18.196,8.368
18.2,8.368
18.204,8.228
18.208,8.216
18.212,8.264
18.216,8.24
18.22,8.156
18.224,8.144
18.228,8.388
18.232,8.784
18.236,9.412
18.24,10.16
18.244,10.872
18.248,11.424
18.252,11.1
18.256,9.748
18.26,9.016
18.264,8.692
18.268,8.564
18.272,8.416
18.276,8.412
18.28,8.172
18.284,8.084
18.288,8.052
18.292,8.124
18.296,8.276
18.3,8.348
18.304,8.272
18.308,8.252
18.312,8.304
18.316,8.316
18.32,8.236
18.324,8.08
18.328,8.168
18.332,8.22
18.336,8.284
18.34,8.284
18.344,8.296
18.348,8.376
18.352,8.416
18.356,8.24
18.36,8.272
18.364,8.248
18.368,8.096
18.372,7.992
18.376,8.024
18.38,8.132
18.384,8.26
18.388,8.112
18.392,7.972
18.396,8.052
18.4,8.188
18.404,8.152
18.408,8.128
18.412,8.244
18.416,8.272
18.42,8.22
18.424,8.164
18.428,8.296
18.432,8.328
18.436,8.216
18.44,8.084
18.444,8.108
18.448,8.16
18.452,8.232
18.456,8.256
18.46,8.468
18.464,8.616
18.468,8.476
18.472,8.028
18.476,8.04
18.48,8.12
18.484,8.236
18.488,8.164
18.492,8.18
18.496,8.248
18.5,8.328
18.504,8.292
18.508,8.316
18.512,8.552
18.516,8.7
18.52,8.472
18.524,8.36
18.528,8.476
18.532,8.648
18.536,8.704
18.54,8.616
18.544,8.772
18.548,8.748
18.552,8.816
18.556,8.612
18.56,8.688
18.564,8.828
18.568,9.072
18.572,9.1
18.576,9.104
18.58,9.204
18.584,9.36
18.588,9.24
18.592,9.132
18.596,9.224
18.6,9.444
18.604,9.476
18.608,9.372
18.612,9.332
18.616,9.368
18.62,9.404
18.624,9.396
18.628,9.444
18.632,9.388
18.636,9.268
18.64,8.952
18.644,9.064
18.648,9.172
18.652,9.168
18.656,8.996
18.66,9.036
18.664,8.92
18.668,9.04
18.672,8.848
18.676,8.872
18.68,9.056
18.684,9.04
18.688,8.872
18.692,8.868
18.696,8.992
18.7,8.868
18.704,8.692
18.708,8.596
18.712,8.684
18.716,8.788
18.72,8.64
18.724,8.632
18.728,8.696
18.732,8.696
18.736,8.692
18.74,8.564
18.744,8.804
18.748,8.788
18.752,8.64
18.756,8.564
18.76,8.52
18.764,8.812
18.768,8.716
18.772,8.756
18.776,8.624
18.78,8.548
18.784,8.6
18.788,8.444
18.792,8.52
18.796,8.604
18.8,8.696
18.804,8.768
18.808,8.892
18.812,9.028
18.816,8.992
18.82,8.644
18.824,8.596
18.828,8.776
18.832,8.916
18.836,8.92
18.84,8.824
18.844,8.908
18.848,8.916
18.852,8.812
18.856,8.684
18.86,8.808
18.864,8.892
18.868,9.044
18.872,8.992
18.876,8.98
18.88,9.064
18.884,9.092
18.888,8.86
18.892,8.696
18.896,8.688
18.9,8.752
18.904,8.764
18.908,8.8
18.912,9.084
18.916,9.108
18.92,8.852
18.924,8.656
18.928,8.692
18.932,8.76
18.936,8.792
18.94,8.708
18.944,8.784
18.948,8.888
18.952,8.924
18.956,8.876
18.96,8.924
18.964,8.88
18.968,8.764
18.972,8.6
18.976,8.672
18.98,8.808
18.984,8.86
18.988,8.768
18.992,8.736
18.996,8.872
19,8.9
19.004,8.772
19.008,8.748
19.012,8.876
19.016,8.908
19.02,8.84
19.024,8.788
19.028,8.86
19.032,8.94
19.036,8.932
19.04,8.94
19.044,9.008
19.048,9.108
19.052,9.108
19.056,9.04
19.06,9.072
19.064,9.092
19.068,9.144
19.072,8.996
19.076,8.976
19.08,9.028
19.084,9.036
19.088,8.824
19.092,8.84
19.096,8.96
19.1,8.98
19.104,8.888
19.108,8.8
19.112,8.912
19.116,8.92
19.12,8.9
19.124,8.848
19.128,8.92
19.132,8.904
19.136,8.836
19.14,8.752
19.144,8.848
19.148,9.012
19.152,9.092
19.156,9.008
19.16,8.852
19.164,8.608
19.168,8.564
19.172,8.416
19.176,8.484
19.18,8.6
19.184,8.628
19.188,8.604
19.192,8.596
19.196,8.696
19.2,8.736
19.204,8.664
19.208,8.62
19.212,8.72
19.216,8.764
19.22,8.7
19.224,8.652
19.228,8.7
19.232,8.736
19.236,8.668
19.24,8.52
19.244,8.636
19.248,8.708
19.252,8.712
19.256,8.576
19.26,8.58
19.264,8.624
19.268,8.668
19.272,8.54
19.276,8.54
19.28,8.664
19.284,8.644
19.288,8.588
19.292,8.56
19.296,8.684
19.3,8.704
19.304,8.672
19.308,8.58
19.312,8.712
19.316,8.74
19.32,8.84
19.324,8.72
19.328,8.744
19.332,8.928
19.336,8.744
19.34,8.596
19.344,8.796
19.348,8.828
19.352,8.696
19.356,8.548
19.36,8.688
19.364,8.864
19.368,8.756
19.372,8.54
19.376,8.62
19.38,8.816
19.384,8.716
19.388,8.464
19.392,8.484
19.396,8.728
19.4,8.928
19.404,8.896
19.408,8.884
19.412,8.868
19.416,8.74
19.42,8.584
19.424,8.416
19.428,8.612
19.432,8.66
19.436,8.7
19.44,8.704
19.444,8.936
19.448,9
19.452,8.888
19.456,8.836
19.46,9.28
19.464,9.764
19.468,9.708
19.472,9.24
19.476,8.968
19.48,8.984
19.484,8.94
19.488,8.968
19.492,9.232
19.496,9.636
19.5,9.796
19.504,9.584
19.508,9
19.512,8.976
19.516,8.972
19.52,9.056
19.524,9.368
19.528,10.148
19.532,10.156
19.536,9.332
19.54,8.424
19.544,8.236
19.548,8.372
19.552,8.508
19.556,8.464
19.56,8.576
19.564,8.776
19.568,8.828
19.572,8.764
19.576,8.792
19.58,8.848
19.584,8.824
19.588,8.764
19.592,8.808
19.596,9.468
19.6,10.464
19.604,11.512
19.608,12.156
19.612,12.596
19.616,11.368
19.62,10.044
19.624,8.992
19.628,8.632
19.632,8.704
19.636,8.864
19.64,8.912
19.644,8.916
19.648,8.96
19.652,8.944
19.656,8.876
19.66,8.916
19.664,8.992
19.668,8.948
19.672,8.868
19.676,8.88
19.68,8.992
19.684,8.944
19.688,8.9
19.692,8.736
19.696,8.844
19.7,8.904
19.704,8.912
19.708,8.836
19.712,8.916
19.716,8.908
19.72,8.952
19.724,8.792
19.728,8.856
19.732,8.896
19.736,8.976
19.74,8.836
19.744,8.892
19.748,9.016
19.752,9.044
19.756,9.048
19.76,9.108
19.764,9.148
19.768,9.048
19.772,8.896
19.776,8.868
19.78,8.988
19.784,8.888
19.788,8.804
19.792,8.736
19.796,8.936
19.8,8.912
19.804,8.888
19.808,8.832
19.812,8.944
19.816,9.08
19.82,9.104
19.824,8.984
19.828,8.94
19.832,8.844
19.836,8.62
19.84,8.488
19.844,8.664
19.848,8.808
19.852,8.796
19.856,8.676
19.86,8.732
19.864,8.944
19.868,9.04
19.872,8.884
19.876,8.692
19.88,8.804
19.884,8.86
19.888,8.916
19.892,8.96
19.896,9.256
19.9,9.244
19.904,9.148
19.908,8.884
19.912,8.892
19.916,8.9
19.92,8.964
19.924,8.992
19.928,9.176
19.932,9.396
19.936,9.568
19.94,9.636
19.944,9.616
19.948,9.376
19.952,9.18
19.956,9.104
19.96,9.176
19.964,9.36
19.968,9.412
19.972,9.42
19.976,9.428
19.98,9.632
19.984,9.632
19.988,9.416
19.992,9.2
19.996,9.236
20,9.14
20.004,9.052
20.008,8.98
20.012,9.052
20.016,9.04
20.02,8.972
20.024,8.852
20.028,8.956
20.032,9.04
20.036,8.988
20.04,8.832
20.044,8.828
20.048,8.844
20.052,8.824
20.056,8.7
20.06,8.736
20.064,8.848
20.068,8.776
20.072,8.692
20.076,8.656
20.08,8.796
20.084,8.768
20.088,8.688
20.092,8.616
20.096,8.808
20.1,8.788
20.104,8.744
20.108,8.648
20.112,8.764
20.116,8.796
20.12,8.744
20.124,8.668
20.128,8.748
20.132,8.832
20.136,8.784
20.14,8.668
20.144,8.716
20.148,8.8
20.152,8.764
20.156,8.716
20.16,8.7
20.164,8.824
20.168,8.808
20.172,8.724
20.176,8.716
20.18,8.856
20.184,8.828
20.188,8.728
20.192,8.684
20.196,8.832
20.2,8.832
20.204,8.768
20.208,8.716
20.212,8.828
20.216,8.864
20.22,8.796
20.224,8.664
20.228,8.784
20.232,8.824
20.236,8.748
20.24,8.664
20.244,8.748
20.248,8.824
20.252,8.776
20.256,8.68
20.26,8.684
20.264,8.796
20.268,8.732
20.272,8.68
20.276,8.648
20.28,8.764
20.284,8.728
20.288,8.664
20.292,8.62
20.296,8.752
20.3,8.768
20.304,8.696
20.308,8.624
20.312,8.728
20.316,8.776
20.32,8.68
20.324,8.632
20.328,8.708
20.332,8.764
20.336,8.688
20.34,8.592
20.344,8.652
20.348,8.744
20.352,8.684
20.356,8.624
20.36,8.592
20.364,8.724
20.368,8.708
20.372,8.62
20.376,8.608
20.38,8.74
20.384,8.712
20.388,8.62
20.392,8.596
20.396,8.712
20.4,8.748
20.404,8.644
20.408,8.572
20.412,8.732
20.416,8.752
20.42,8.664
20.424,8.58
20.428,8.668
20.432,8.748
20.436,8.692
20.44,8.592
20.444,8.66
20.448,8.748
20.452,8.692
20.456,8.596
20.46,8.608
20.464,8.74
20.468,8.692
20.472,8.604
20.476,8.624
20.48,8.764
20.484,8.704
20.488,8.62
20.492,8.584
20.496,8.728
20.5,8.732
20.504,8.632
20.508,8.516
20.512,8.728
20.516,8.76
20.52,8.66
20.524,8.54
20.528,8.652
20.532,8.704
20.536,8.664
20.54,8.556
20.544,8.64
20.548,8.744
20.552,8.688
20.556,8.588
20.56,8.584
20.564,8.716
20.568,8.676
20.572,8.62
20.576,8.604
20.58,8.728
20.584,8.728
20.588,8.636
20.592,8.584
20.596,8.732
20.6,8.74
20.604,8.66
20.608,8.608
20.612,8.732
20.616,8.784
20.62,8.676
20.624,8.568
20.628,8.632
20.632,8.72
20.636,8.644
20.64,8.592
20.644,8.632
20.648,8.728
20.652,8.692
20.656,8.604
20.66,8.584
20.664,8.736
20.668,8.724
20.672,8.624
20.676,8.608
20.68,8.736
20.684,8.728
20.688,8.632
20.692,8.62
20.696,8.716
20.7,8.704
20.704,8.628
20.708,8.608
20.712,8.704
20.716,8.748
20.72,8.664
20.724,8.588
20.728,8.656
20.732,8.744
20.736,8.664
20.74,8.616
20.744,8.616
20.748,8.736
20.752,8.692
20.756,8.62
20.76,8.636
20.764,8.764
20.768,8.712
20.772,8.64
20.776,8.66
20.78,8.796
20.784,8.796
20.788,8.696
20.792,8.684
20.796,8.8
20.8,8.856
20.804,8.772
20.808,8.772
20.812,8.864
20.816,9.028
20.82,8.96
20.824,8.884
20.828,8.912
20.832,9.02
20.836,8.956
20.84,8.876
20.844,8.884
20.848,8.952
20.852,8.832
20.856,8.712
20.86,8.688
20.864,8.748
20.868,8.7
20.872,8.56
20.876,8.504
20.88,8.664
20.884,8.652
20.888,8.584
20.892,8.556
20.896,8.62
20.9,8.664
20.904,8.576
20.908,8.548
20.912,8.46
20.916,8.456
20.92,8.488
20.924,8.608
20.928,9.024
20.932,9.816
20.936,10.472
20.94,11.04
20.944,11.432
20.948,10.528
20.952,9.672
20.956,8.948
20.96,8.496
20.964,8.56
20.968,8.56
20.972,8.544
20.976,8.528
20.98,8.572
20.984,8.568
20.988,8.508
20.992,8.5
20.996,8.54
21,8.58
21.004,8.508
21.008,8.464
21.012,8.516
21.016,8.616
21.02,8.528
21.024,8.416
21.028,8.492
21.032,8.596
21.036,8.548
21.04,8.448
21.044,8.484
21.048,8.62
21.052,8.552
21.056,8.42
21.06,8.476
21.064,8.54
21.068,8.528
21.072,8.428
21.076,8.408
21.08,8.528
21.084,8.536
21.088,8.448
21.092,8.44
21.096,8.516
21.1,8.588
21.104,8.484
21.108,8.456
21.112,8.5
21.116,8.588
21.12,8.528
21.124,8.448
21.128,8.524
21.132,8.588
21.136,8.516
21.14,8.444
21.144,8.54
21.148,8.604
21.152,8.568
21.156,8.488
21.16,8.516
21.164,8.596
21.168,8.628
21.172,8.532
21.176,8.564
21.18,8.604
21.184,8.664
21.188,8.576
21.192,8.576
21.196,8.596
21.2,8.712
21.204,8.66
21.208,8.636
21.212,8.692
21.216,8.772
21.22,8.74
21.224,8.68
21.228,8.812
21.232,8.84
21.236,8.904
21.24,8.804
21.244,8.884
21.248,8.932
21.252,9.04
21.256,8.964
21.26,9.016
21.264,9.096
21.268,9.212
21.272,9.132
21.276,9.104
21.28,9.248
21.284,9.248
21.288,9.256
21.292,9.212
21.296,9.32
21.3,9.264
21.304,9.308
21.308,9.168
21.312,9.236
21.316,9.196
21.32,9.192
21.324,9.028
21.328,9.032
21.332,9.032
21.336,9
21.34,8.868
21.344,8.848
21.348,8.864
21.352,8.796
21.356,8.788
21.36,8.716
21.364,8.74
21.368,8.68
21.372,8.704
21.376,8.624
21.38,8.684
21.384,8.668
21.388,8.644
21.392,8.572
21.396,8.644
21.4,8.588
21.404,8.616
21.408,8.564
21.412,8.64
21.416,8.584
21.42,8.576
21.424,8.504
21.428,8.604
21.432,8.576
21.436,8.568
21.44,8.484
21.444,8.576
21.448,8.62
21.452,8.588
21.456,8.524
21.46,8.588
21.464,8.62
21.468,8.628
21.472,8.532
21.476,8.54
21.48,8.668
21.484,8.644
21.488,8.556
21.492,8.536
21.496,8.648
21.5,8.656
21.504,8.592
21.508,8.572
21.512,8.612
21.516,8.7
21.52,8.624
21.524,8.532
21.528,8.644
21.532,8.724
21.536,8.664
21.54,8.544
21.544,8.632
21.548,8.776
21.552,8.732
21.556,8.544
21.56,8.54
21.564,8.592
21.568,8.664
21.572,8.66
21.576,8.744
21.58,8.72
21.584,8.732
21.588,8.616
21.592,8.472
21.596,8.48
21.6,8.488
21.604,8.496
21.608,8.44
21.612,8.592
21.616,8.612
21.62,8.444
21.624,8.352
21.628,8.416
21.632,8.544
21.636,8.452
21.64,8.432
21.644,8.464
21.648,8.532
21.652,8.48
21.656,8.532
21.66,8.644
21.664,8.892
21.668,8.848
21.672,8.7
21.676,8.54
21.68,8.532
21.684,8.604
21.688,8.396
21.692,8.252
21.696,8.344
21.7,8.456
21.704,8.5
21.708,8.516
21.712,8.5
21.716,8.736
21.72,8.504
21.724,8.32
21.728,8.44
21.732,8.568
21.736,8.572
21.74,8.548
21.744,8.7
21.748,8.732
21.752,8.656
21.756,8.4
21.76,8.472
21.764,8.64
21.768,8.7
21.772,8.7
21.776,8.752
21.78,8.732
21.784,8.624
21.788,8.58
21.792,8.648
21.796,8.656
21.8,8.636
21.804,8.556
21.808,8.488
21.812,8.596
21.816,8.592
21.82,8.78
21.824,8.72
21.828,8.596
21.832,8.632
21.836,8.636
21.84,8.56
21.844,8.672
21.848,8.9
21.852,8.828
21.856,8.636
21.86,8.616
21.864,8.776
21.868,8.96
21.872,8.736
21.876,8.484
21.88,8.54
21.884,8.476
21.888,8.34
21.892,8.48
21.896,8.576
21.9,8.648
21.904,8.66
21.908,8.728
21.912,8.728
21.916,8.66
21.92,8.444
21.924,8.268
21.928,8.536
21.932,8.764
21.936,8.768
21.94,8.676
21.944,8.6
21.948,8.66
21.952,8.792
21.956,8.792
21.96,8.78
21.964,8.764
21.968,8.596
21.972,8.412
21.976,8.444
21.98,8.636
21.984,8.732
21.988,8.592
21.992,8.6
21.996,8.768
22,8.744
22.004,8.676
22.008,8.728
22.012,8.772
22.016,8.544
22.02,8.532
22.024,8.396
22.028,8.428
22.032,8.6
22.036,8.652
22.04,8.524
22.044,8.492
22.048,8.508
22.052,8.448
22.056,8.424
22.06,8.528
22.064,8.776
22.068,9.1
22.072,9.08
22.076,9.064
22.08,8.844
22.084,8.756
22.088,8.456
22.092,8.216
22.096,8.164
22.1,8.404
22.104,8.52
22.108,8.632
22.112,8.732
22.116,8.536
22.12,8.496
22.124,8.532
22.128,8.688
22.132,8.784
22.136,8.856
22.14,8.768
22.144,8.812
22.148,8.796
22.152,8.524
22.156,8.348
22.16,8.676
22.164,9.06
22.168,9.144
22.172,8.756
22.176,8.664
22.18,8.788
22.184,8.956
22.188,8.908
22.192,9.04
22.196,8.88
22.2,8.92
22.204,8.74
22.208,8.348
22.212,8.296
22.216,8.412
22.22,8.384
22.224,8.432
22.228,8.356
22.232,8.612
22.236,8.788
22.24,8.668
22.244,8.592
22.248,8.232
22.252,8.26
22.256,8.244
22.26,8.272
22.264,8.252
22.268,8.308
22.272,8.48
22.276,8.96
22.28,9.836
22.284,10.492
22.288,11.048
22.292,11.316
22.296,10.5
22.3,9.86
22.304,8.936
22.308,8.6
22.312,8.652
22.316,8.576
22.32,8.256
22.324,8.32
22.328,8.552
22.332,8.684
22.336,8.336
22.34,8.452
22.344,8.532
22.348,8.44
22.352,8.224
22.356,8.248
22.36,8.34
22.364,8.4
22.368,8.336
22.372,8.248
22.376,8.244
22.38,8.316
22.384,8.296
22.388,8.212
22.392,8.26
22.396,8.32
22.4,8.5
22.404,8.416
22.408,8.244
22.412,8.232
22.416,8.412
22.42,8.284
22.424,8.22
22.428,8.328
22.432,8.424
22.436,8.364
22.44,8.324
22.444,8.384
22.448,8.336
22.452,8.4
22.456,8.24
22.46,8.28
22.464,8.356
22.468,8.396
22.472,8.428
22.476,8.46
22.48,8.372
22.484,8.308
22.488,8.24
22.492,8.328
22.496,8.416
22.5,8.492
22.504,8.376
22.508,8.332
22.512,8.404
22.516,8.524
22.52,8.452
22.524,8.46
22.528,8.432
22.532,8.476
22.536,8.508
22.54,8.38
22.544,8.492
22.548,8.592
22.552,8.564
22.556,8.496
22.56,8.556
22.564,8.62
22.568,8.7
22.572,8.636
22.576,8.7
22.58,8.792
22.584,8.916
22.588,8.82
22.592,8.62
22.596,8.796
22.6,8.96
22.604,8.908
22.608,8.968
22.612,8.94
22.616,9.056
22.62,9.076
22.624,9.092
22.628,9.244
22.632,9.252
22.636,9.152
22.64,9.224
22.644,9.252
22.648,9.304
22.652,9.22
22.656,9.236
22.66,9.224
22.664,9.196
22.668,9.084
22.672,8.976
22.676,8.98
22.68,9.004
22.684,9.088
22.688,8.916
22.692,8.812
22.696,8.816
22.7,8.784
22.704,8.668
22.708,8.568
22.712,8.508
22.716,8.632
22.72,8.54
22.724,8.5
22.728,8.612
22.732,8.708
22.736,8.532
22.74,8.452
22.744,8.58
22.748,8.676
22.752,8.656
22.756,8.52
22.76,8.332
22.764,8.46
22.768,8.508
22.772,8.468
22.776,8.452
22.78,8.488
22.784,8.52
22.788,8.432
22.792,8.444
22.796,8.496
22.8,8.552
22.804,8.504
22.808,8.428
22.812,8.536
22.816,8.624
22.82,8.504
22.824,8.424
22.828,8.496
22.832,8.58
22.836,8.532
22.84,8.448
22.844,8.556
22.848,8.636
22.852,8.584
22.856,8.516
22.86,8.5
22.864,8.544
22.868,8.552
22.872,8.496
22.876,8.532
22.88,8.604
22.884,8.56
22.888,8.396
22.892,8.364
22.896,8.492
22.9,8.564
22.904,8.476
22.908,8.46
22.912,8.536
22.916,8.572
22.92,8.448
22.924,8.452
22.928,8.488
22.932,8.564
22.936,8.472
22.94,8.416
22.944,8.432
22.948,8.508
22.952,8.492
22.956,8.392
22.96,8.468
22.964,8.512
22.968,8.46
22.972,8.416
22.976,8.428
22.98,8.46
22.984,8.476
22.988,8.36
22.992,8.316
22.996,8.428
23,8.472
23.004,8.384
23.008,8.336
23.012,8.452
23.016,8.476
23.02,8.344
23.024,8.308
23.028,8.352
23.032,8.444
23.036,8.38
23.04,8.324
23.044,8.404
23.048,8.444
23.052,8.308
23.056,8.244
23.06,8.336
23.064,8.388
23.068,8.36
23.072,8.292
23.076,8.296
23.08,8.368
23.084,8.364
23.088,8.276
23.092,8.316
23.096,8.36
23.1,8.384
23.104,8.264
23.108,8.256
23.112,8.34
23.116,8.416
23.12,8.34
23.124,8.26
23.128,8.356
23.132,8.44
23.136,8.324
23.14,8.264
23.144,8.268
23.148,8.368
23.152,8.336
23.156,8.308
23.16,8.348
23.164,8.432
23.168,8.38
23.172,8.168
23.176,8.252
23.18,8.324
23.184,8.368
23.188,8.256
23.192,8.268
23.196,8.32
23.2,8.38
23.204,8.24
23.208,8.26
23.212,8.308
23.216,8.372
23.22,8.292
23.224,8.26
23.228,8.32
23.232,8.388
23.236,8.28
23.24,8.26
23.244,8.336
23.248,8.332
23.252,8.352
23.256,8.328
23.26,8.32
23.264,8.248
23.268,8.212
23.272,8.192
23.276,8.236
23.28,8.272
23.284,8.312
23.288,8.212
23.292,8.236
23.296,8.268
23.3,8.352
23.304,8.184
23.308,8.216
23.312,8.28
23.316,8.328
23.32,8.22
23.324,8.264
23.328,8.284
23.332,8.344
23.336,8.296
23.34,8.34
23.344,8.404
23.348,8.5
23.352,8.348
23.356,8.216
23.36,8.08
23.364,8.22
23.368,8.208
23.372,8.208
23.376,8.224
23.38,8.252
23.384,8.296
23.388,8.216
23.392,8.252
23.396,8.296
23.4,8.312
23.404,8.228
23.408,8.264
23.412,8.352
23.416,8.332
23.42,8.188
23.424,8.264
23.428,8.26
23.432,8.328
23.436,8.196
23.44,8.24
23.444,8.244
23.448,8.268
23.452,8.264
23.456,8.296
23.46,8.328
23.464,8.384
23.468,8.316
23.472,8.3
23.476,8.38
23.48,8.456
23.484,8.44
23.488,8.384
23.492,8.464
23.496,8.536
23.5,8.62
23.504,8.516
23.508,8.536
23.512,8.572
23.516,8.62
23.52,8.516
23.524,8.596
23.528,8.636
23.532,8.688
23.536,8.468
23.54,8.208
23.544,8.208
23.548,8.264
23.552,8.06
23.556,8.176
23.56,8.208
23.564,8.248
23.568,8.156
23.572,8.204
23.576,8.228
23.58,8.304
23.584,8.304
23.588,8.128
23.592,7.992
23.596,7.952
23.6,8.176
23.604,8.34
23.608,8.644
23.612,9.36
23.616,10.052
23.62,10.732
23.624,11.216
23.628,10.272
23.632,9.436
23.636,8.612
23.64,8.176
23.644,7.84
23.648,8.112
23.652,8.22
23.656,8.124
23.66,8.08
23.664,8.16
23.668,8.168
23.672,8.24
23.676,8.052
23.68,8.152
23.684,8.132
23.688,8.048
23.692,8.068
23.696,8.008
23.7,8.168
23.704,8.064
23.708,8.132
23.712,8.128
23.716,8.168
23.72,8.096
23.724,8.12
23.728,8.12
23.732,8.216
23.736,8.076
23.74,8.116
23.744,8.12
23.748,8.188
23.752,8.156
23.756,8.284
23.76,8.28
23.764,8
23.768,7.98
23.772,8.04
23.776,8.052
23.78,8.152
23.784,8.208
23.788,8.176
23.792,8.176
23.796,8.14
23.8,8.128
23.804,8.064
23.808,8.128
23.812,8.236
23.816,8.2
23.82,8.2
23.824,8.18
23.828,8.124
23.832,8.184
23.836,8.068
23.84,8.08
23.844,8.168
23.848,8.248
23.852,8.132
23.856,8.216
23.86,8.232
23.864,8.296
23.868,8.224
23.872,8.26
23.876,8.204
23.88,8.148
23.884,8.236
23.888,8.284
23.892,8.348
23.896,8.472
23.9,8.504
23.904,8.388
23.908,8.328
23.912,8.364
23.916,8.528
23.92,8.656
23.924,8.764
23.928,8.824
23.932,8.82
23.936,8.52
23.94,8.444
23.944,8.62
23.948,8.732
23.952,8.704
23.956,8.748
23.96,8.828
23.964,8.884
23.968,8.852
23.972,8.996
23.976,8.968
23.98,9.088
23.984,9.004
23.988,8.944
23.992,8.96
23.996,9.02
24,8.896
24.004,8.728
24.008,8.692
24.012,8.636
24.016,8.58
24.02,8.476
24.024,8.38
24.028,8.412
24.032,8.444
24.036,8.432
24.04,8.352
24.044,8.352
24.048,8.34
24.052,8.332
24.056,8.42
24.06,8.448
24.064,8.332
24.068,8.2
24.072,8.34
24.076,8.22
24.08,8.364
24.084,8.396
24.088,8.372
24.092,8.264
24.096,8.288
24.1,8.26
24.104,8.324
24.108,8.216
24.112,8.292
24.116,8.092
24.12,8.048
24.124,8.06
24.128,8.248
24.132,8.36
24.136,8.216
24.14,8.252
24.144,8.28
24.148,8.272
24.152,8.264
24.156,8.18
24.16,8.064
24.164,8.204
24.168,8.14
24.172,8.2
24.176,8.228
24.18,8.272
24.184,8.276
24.188,8.296
24.192,8.336
24.196,8.444
24.2,8.496
24.204,8.512
24.208,8.268
24.212,8.284
24.216,8.16
24.22,8.12
24.224,8.104
24.228,8.268
24.232,8.372
24.236,8.192
24.24,8.2
24.244,8.272
24.248,8.348
24.252,8.2
24.256,8.152
24.26,8.14
24.264,8.304
24.268,8.332
24.272,8.408
24.276,8.408
24.28,8.388
24.284,8.24
24.288,8.144
24.292,8.148
24.296,8.296
24.3,8.064
24.304,8.1
24.308,8.08
24.312,8.16
24.316,8.172
24.32,8.2
24.324,8.148
24.328,8.172
24.332,8.26
24.336,8.168
24.34,8.244
24.344,8.328
24.348,8.316
24.352,8.048
24.356,8.104
24.36,8.172
24.364,8.316
24.368,8.256
24.372,8.248
24.376,8.308
24.38,8.112
24.384,8.028
24.388,8.12
24.392,8.096
24.396,8.22
24.4,8.2
24.404,8.168
24.408,8.056
24.412,8.144
24.416,8.224
24.42,8.244
24.424,8.092
24.428,8.188
24.432,8.256
24.436,8.284
24.44,8.244
24.444,8.16
24.448,8.16
24.452,8.096
24.456,8.048
24.46,8.04
24.464,8.208
24.468,8.168
24.472,8.232
24.476,8.052
24.48,8.224
24.484,8.056
24.488,8.172
24.492,8.088
24.496,8.16
24.5,8.164
24.504,8.184
24.508,8.136
24.512,8.18
24.516,8.172
24.52,8.144
24.524,8.076
24.528,8.084
24.532,8.208
24.536,8.26
24.54,8.2
24.544,8.164
24.548,8.232
24.552,8.152
24.556,8.016
24.56,8.036
24.564,8.2
24.568,8.18
24.572,8.176
24.576,8.056
24.58,8.132
24.584,8.112
24.588,8.124
24.592,8.116
24.596,8.184
24.6,8.252
24.604,8.264
24.608,8.236
24.612,8.272
24.616,8.14
24.62,7.792
24.624,7.976
24.628,8.1
24.632,8.14
24.636,8.188
24.64,8.104
24.644,8.096
24.648,8.136
24.652,8.164
24.656,8.076
24.66,8.016
24.664,8.008
24.668,8.008
24.672,8.052
24.676,8.164
24.68,8.308
24.684,7.984
24.688,8.02
24.692,8.052
24.696,8.164
24.7,8.052
24.704,8.092
24.708,8.084
24.712,8.144
24.716,8.148
24.72,8.088
24.724,8.1
24.728,8.14
24.732,8.184
24.736,8.116
24.74,8.008
24.744,8.068
24.748,8.136
24.752,8.084
24.756,8.072
24.76,8.128
24.764,8.18
24.768,8.108
24.772,8.024
24.776,8.108
24.78,8.112
24.784,7.936
24.788,8.088
24.792,8.112
24.796,8.188
24.8,8.164
24.804,8.208
24.808,8.196
24.812,8.312
24.816,8.272
24.82,8.284
24.824,8.276
24.828,8.46
24.832,8.556
24.836,8.404
24.84,8.3
24.844,8.232
24.848,8.28
24.852,8.236
24.856,8.244
24.86,8.248
24.864,8.296
24.868,8.232
24.872,8.08
24.876,7.96
24.88,8.056
24.884,8.04
24.888,7.96
24.892,7.984
24.896,8.088
24.9,7.964
24.904,7.972
24.908,7.92
24.912,8.124
24.916,8.236
24.92,7.928
24.924,7.8
24.928,7.78
24.932,7.932
24.936,8.144
24.94,8.352
24.944,8.972
24.948,9.832
24.952,10.516
24.956,10.964
24.96,10.184
24.964,9.232
24.968,8.552
24.972,8.024
24.976,7.792
24.98,7.88
24.984,8.084
24.988,8.052
24.992,7.936
24.996,7.932
25,7.936
25.004,7.988
25.008,7.936
25.012,7.892
25.016,7.944
25.02,7.948
25.024,8.02
25.028,8.052
25.032,7.9
25.036,7.876
25.04,7.752
25.044,7.78
25.048,7.924
25.052,7.876
25.056,7.86
25.06,7.896
25.064,7.956
25.068,7.904
25.072,7.884
25.076,7.924
25.08,7.968
25.084,7.832
25.088,7.872
25.092,7.896
25.096,7.924
25.1,7.948
25.104,7.916
25.108,7.904
25.112,7.984
25.116,8.088
25.12,8.068
25.124,7.724
25.128,7.848
25.132,7.944
25.136,7.944
25.14,7.844
25.144,7.912
25.148,7.976
25.152,7.94
25.156,7.888
25.16,7.936
25.164,7.984
25.168,7.952
25.172,7.968
25.176,7.98
25.18,8.024
25.184,7.98
25.188,7.996
25.192,7.96
25.196,8.028
25.2,8.06
25.204,8.068
25.208,8.076
25.212,8.108
25.216,8.136
25.22,8.08
25.224,8.028
25.228,8.124
25.232,8.232
25.236,8.168
25.24,8.152
25.244,8.2
25.248,8.32
25.252,8.32
25.256,8.312
25.26,8.328
25.264,8.444
25.268,8.456
25.272,8.464
25.276,8.516
25.28,8.608
25.284,8.612
25.288,8.612
25.292,8.632
25.296,8.708
25.3,8.744
25.304,8.732
25.308,8.716
25.312,8.772
25.316,8.808
25.32,8.772
25.324,8.712
25.328,8.636
25.332,8.624
25.336,8.6
25.34,8.492
25.344,8.516
25.348,8.456
25.352,8.36
25.356,8.228
25.36,8.232
25.364,8.308
25.368,8.204
25.372,8.16
25.376,8.18
25.38,8.264
25.384,8.284
25.388,8.196
25.392,8.148
25.396,8.16
25.4,8.064
25.404,7.996
25.408,7.948
25.412,7.988
25.416,7.988
25.42,7.956
25.424,7.936
25.428,7.972
25.432,8.052
25.436,7.996
25.44,7.952
25.444,8
25.448,8.072
25.452,7.992
25.456,7.96
25.46,8.004
25.464,8.084
25.468,8.02
25.472,8.028
25.476,8.06
25.48,8.08
25.484,8.06
25.488,8.032
25.492,8.04
25.496,8.088
25.5,8.08
25.504,8.06
25.508,8.012
25.512,8.048
25.516,8.12
25.52,8.06
25.524,8.044
25.528,8.064
25.532,8.112
25.536,8.072
25.54,8.04
25.544,8.056
25.548,8.132
25.552,8.076
25.556,8.068
25.56,8.072
25.564,8.136
25.568,8.064
25.572,8.036
25.576,8.028
25.58,8.108
25.584,8.076
25.588,8.064
25.592,8.004
25.596,8.044
25.6,8.084
25.604,8.052
25.608,8.028
25.612,8.092
25.616,8.068
25.62,8.032
25.624,7.992
25.628,8.04
25.632,8.056
25.636,8.044
25.64,8.008
25.644,8.04
25.648,8.064
25.652,8.028
25.656,7.992
25.66,8.004
25.664,8.048
25.668,8.012
25.672,7.952
25.676,7.932
25.68,8.012
25.684,7.984
25.688,7.964
25.692,8.004
25.696,7.988
25.7,8.036
25.704,8.004
25.708,7.976
25.712,8.044
25.716,8.08
25.72,7.972
25.724,7.968
25.728,8.024
25.732,8.072
25.736,8.028
25.74,7.924
25.744,7.996
25.748,8.072
25.752,8.028
25.756,7.96
25.76,7.956
25.764,7.984
25.768,7.976
25.772,7.94
25.776,7.988
25.78,7.988
25.784,7.972
25.788,7.972
25.792,7.976
25.796,7.996
25.8,7.984
25.804,7.94
25.808,7.952
25.812,7.984
25.816,8.044
25.82,8.004
25.824,7.944
25.828,8
25.832,8.02
25.836,8.008
25.84,8.004
25.844,8.016
25.848,8.1
25.852,7.984
25.856,7.928
25.86,7.98
25.864,8
25.868,7.956
25.872,7.924
25.876,7.948
25.88,8.024
25.884,8.02
25.888,8.016
25.892,7.94
25.896,7.908
25.9,7.992
25.904,7.968
25.908,7.96
25.912,7.968
25.916,7.992
25.92,7.956
25.924,7.988
25.928,8.008
25.932,8.048
25.936,7.96
25.94,7.928
25.944,7.98
25.948,8.036
25.952,7.972
25.956,7.948
25.96,7.956
25.964,8.016
25.968,7.992
25.972,7.956
25.976,7.912
25.98,7.952
25.984,7.992
25.988,7.952
25.992,7.992
25.996,8.048
26,7.992
26.004,7.92
26.008,7.916
26.012,7.988
26.016,8.004
26.02,7.928
26.024,7.916
26.028,7.952
26.032,8.012
26.036,7.96
26.04,7.924
26.044,7.956
26.048,8.024
26.052,7.952
26.056,7.912
26.06,7.964
26.064,8.016
26.068,7.968
26.072,7.936
26.076,7.972
26.08,8.004
26.084,7.964
26.088,7.944
26.092,7.964
26.096,8.032
26.1,8.06
26.104,7.988
26.108,7.96
26.112,8.008
26.116,8.08
26.12,8.04
26.124,8.024
26.128,8.084
26.132,8.132
26.136,8.128
26.14,8.08
26.144,8.148
26.148,8.244
26.152,8.22
26.156,8.212
26.16,8.268
26.164,8.32
26.168,8.248
26.172,8.22
26.176,8.216
26.18,8.252
26.184,8.24
26.188,8.124
26.192,8.112
26.196,8.072
26.2,8.06
26.204,7.98
26.208,7.968
26.212,7.96
26.216,7.98
26.22,7.88
26.224,7.868
26.228,7.904
26.232,7.976
26.236,7.932
26.24,7.912
26.244,7.9
26.248,7.856
26.252,7.66
26.256,7.736
26.26,8.004
26.264,8.58
26.268,9.336
26.272,10.08
26.276,10.728
26.28,10.852
26.284,9.64
26.288,8.844
26.292,8.276
26.296,7.884
26.3,7.86
26.304,7.86
26.308,7.912
26.312,7.876
26.316,7.9
26.32,7.828
26.324,7.824
26.328,7.896
26.332,7.94
26.336,7.828
26.34,7.752
26.344,7.828
26.348,7.904
26.352,7.852
26.356,7.828
26.36,7.856
26.364,7.888
26.368,7.82
26.372,7.784
26.376,7.86
26.38,7.868
26.384,7.872
26.388,7.824
26.392,7.832
26.396,7.876
26.4,7.908
26.404,7.836
26.408,7.812
26.412,7.844
26.416,7.896
26.42,7.84
26.424,7.792
26.428,7.848
26.432,7.904
26.436,7.852
26.44,7.836
26.444,7.896
26.448,7.92
26.452,7.836
26.456,7.836
26.46,7.86
26.464,7.88
26.468,7.86
26.472,7.832
26.476,7.844
26.48,7.904
26.484,7.872
26.488,7.856
26.492,7.876
26.496,7.904
26.5,7.96
26.504,7.952
26.508,7.936
26.512,7.952
26.516,8
26.52,7.9
26.524,7.924
26.528,7.972
26.532,8.048
26.536,8
26.54,8.004
26.544,8.068
26.548,8.096
26.552,8.028
26.556,8.044
26.56,8.14
26.564,8.196
26.568,8.176
26.572,8.18
26.576,8.224
26.58,8.244
26.584,8.344
26.588,8.34
26.592,8.4
26.596,8.476
26.6,8.512
26.604,8.512
26.608,8.58
26.612,8.64
26.616,8.596
26.62,8.604
26.624,8.616
26.628,8.668
26.632,8.708
26.636,8.64
26.64,8.604
26.644,8.616
26.648,8.64
26.652,8.532
26.656,8.504
26.66,8.468
26.664,8.444
26.668,8.352
26.672,8.3
26.676,8.288
26.68,8.268
26.684,8.236
26.688,8.164
26.692,8.144
26.696,8.144
26.7,8.156
26.704,8.044
26.708,8.06
26.712,8.036
26.716,8.076
26.72,7.968
26.724,7.968
26.728,7.976
26.732,7.996
26.736,7.972
26.74,7.968
26.744,7.98
26.748,7.936
26.752,7.928
26.756,7.92
26.76,7.964
26.764,7.996
26.768,7.94
26.772,7.912
26.776,7.984
26.78,8.036
26.784,7.956
26.788,7.892
26.792,7.9
26.796,7.928
26.8,8
26.804,7.94
26.808,7.956
26.812,7.976
26.816,8.036
26.82,7.964
26.824,7.96
26.828,7.996
26.832,8.024
26.836,7.976
26.84,7.976
26.844,8.02
26.848,8.04
26.852,7.992
26.856,7.94
26.86,7.996
26.864,8.028
26.868,7.992
26.872,7.996
26.876,7.988
26.88,8.004
26.884,8.06
26.888,8.004
26.892,8.02
26.896,7.988
26.9,7.976
26.904,7.948
26.908,7.976
26.912,8.032
26.916,8.02
26.92,7.964
26.924,7.96
26.928,8.008
26.932,8.036
26.936,7.96
26.94,7.908
26.944,7.94
26.948,7.988
26.952,7.948
26.956,7.928
26.96,7.96
26.964,8.004
26.968,7.964
26.972,7.94
26.976,7.996
26.98,8.004
26.984,7.976
26.988,7.924
26.992,7.948
26.996,7.976
27,7.996
27.004,7.932
27.008,7.964
27.012,7.968
27.016,7.996
27.02,7.948
27.024,7.892
27.028,7.936
27.032,7.94
27.036,7.916
27.04,7.9
27.044,7.968
27.048,7.98
27.052,7.872
27.056,7.888
27.06,7.972
27.064,8.008
27.068,7.98
27.072,7.948
27.076,7.944
27.08,7.984
27.084,8.008
27.088,7.928
27.092,7.896
27.096,7.928
27.1,7.984
27.104,7.916
27.108,7.928
27.112,7.936
27.116,7.952
27.12,7.908
27.124,7.92
27.128,7.948
27.132,7.968
27.136,7.912
27.14,7.908
27.144,7.94
27.148,7.968
27.152,7.924
27.156,7.9
27.16,7.948
27.164,7.948
27.168,7.964
27.172,7.952
27.176,7.976
27.18,7.948
27.184,7.956
27.188,7.908
27.192,7.94
27.196,7.976
27.2,7.972
27.204,7.884
27.208,7.928
27.212,7.996
27.216,8.008
27.22,7.916
27.224,7.9
27.228,7.928
27.232,7.988
27.236,7.912
27.24,7.884
27.244,7.92
27.248,7.964
27.252,7.928
27.256,7.92
27.26,7.928
27.264,7.956
27.268,7.936
27.272,7.892
27.276,7.952
27.28,7.972
27.284,7.972
27.288,7.92
27.292,7.932
27.296,7.956
27.3,7.952
27.304,7.9
27.308,7.96
27.312,7.968
27.316,7.984
27.32,7.936
27.324,7.892
27.328,7.928
27.332,7.98
27.336,7.908
27.34,7.932
27.344,7.996
27.348,7.996
27.352,7.976
27.356,7.912
27.36,7.992
27.364,7.948
27.368,7.88
27.372,7.9
27.376,7.976
27.38,7.996
27.384,8
27.388,7.924
27.392,7.928
27.396,7.936
27.4,7.996
27.404,7.924
27.408,7.948
27.412,7.964
27.416,8
27.42,7.94
27.424,7.932
27.428,7.984
27.432,7.984
27.436,7.908
27.44,7.936
27.444,7.944
27.448,8.004
27.452,7.96
27.456,7.944
27.46,8
27.464,8.04
27.468,8.008
27.472,7.996
27.476,8.036
27.48,8.06
27.484,8.032
27.488,8.004
27.492,8.08
27.496,8.124
27.5,8.08
27.504,8.08
27.508,8.148
27.512,8.244
27.516,8.28
27.52,8.232
27.524,8.264
27.528,8.292
27.532,8.316
27.536,8.22
27.54,8.204
27.544,8.22
27.548,8.184
27.552,8.068
27.556,8.024
27.56,8.072
27.564,8.04
27.568,7.996
27.572,7.928
27.576,7.956
27.58,7.96
27.584,7.952
27.588,7.916
27.592,7.92
27.596,7.932
27.6,7.924
27.604,7.856
27.608,7.844
27.612,7.716
27.616,7.8
27.62,7.904
27.624,8.192
27.628,8.956
27.632,9.728
27.636,10.412
27.64,10.94
27.644,10.288
27.648,9.272
27.652,8.58
27.656,8.036
27.66,7.94
27.664,7.856
27.668,7.952
27.672,7.828
27.676,7.872
27.68,7.904
27.684,7.884
27.688,7.852
27.692,7.872
27.696,7.924
27.7,7.912
27.704,7.852
27.708,7.84
27.712,7.912
27.716,7.908
27.72,7.836
27.724,7.804
27.728,7.884
27.732,7.904
27.736,7.84
27.74,7.824
27.744,7.96
27.748,7.916
27.752,7.884
27.756,7.828
27.76,7.924
27.764,7.9
27.768,7.88
27.772,7.84
27.776,7.892
27.78,7.924
27.784,7.892
27.788,7.832
27.792,7.904
27.796,7.924
27.8,7.876
27.804,7.876
27.808,7.876
27.812,7.944
27.816,7.932
27.82,7.868
27.824,7.88
27.828,7.948
27.832,7.924
27.836,7.856
27.84,7.848
27.844,7.928
27.848,7.956
27.852,7.932
27.856,7.9
27.86,7.992
27.864,8.008
27.868,7.992
27.872,7.932
27.876,8.036
27.88,8.04
27.884,8.048
27.888,7.972
27.892,8.028
27.896,8.06
27.9,8.1
27.904,8.06
27.908,8.1
27.912,8.172
27.916,8.188
27.92,8.16
27.924,8.188
27.928,8.252
27.932,8.276
27.936,8.272
27.94,8.308
27.944,8.396
27.948,8.448
27.952,8.416
27.956,8.404
27.96,8.508
27.964,8.584
27.968,8.588
27.972,8.552
27.976,8.652
27.98,8.72
27.984,8.748
27.988,8.716
27.992,8.716
27.996,8.752
28,8.748
28.004,8.68
28.008,8.668
28.012,8.636
28.016,8.632
28.02,8.52
28.024,8.516
28.028,8.516
28.032,8.464
28.036,8.344
28.04,8.296
28.044,8.34
28.048,8.308
28.052,8.212
28.056,8.192
28.06,8.252
28.064,8.232
28.068,8.196
28.072,8.052
28.076,8.084
28.08,8.104
28.084,8.08
28.088,8.012
28.092,8.084
28.096,8.088
28.1,8.056
28.104,8
28.108,8.016
28.112,8.064
28.116,8.064
28.12,7.98
28.124,8.008
28.128,8.088
28.132,8.08
28.136,7.988
28.14,8.004
28.144,8.072
28.148,8.052
28.152,8.02
28.156,8.02
28.16,8.04
28.164,8.08
28.168,8.06
28.172,8.04
28.176,8.116
28.18,8.108
28.184,8.072
28.188,8.012
28.192,8.06
28.196,8.132
28.2,8.116
28.204,8.048
28.208,8.08
28.212,8.12
28.216,8.176
28.22,8.116
28.224,8.116
28.228,8.152
28.232,8.048
28.236,8.052
28.24,8.076
28.244,8.136
28.248,8.096
28.252,8.072
28.256,8.064
28.26,8.14
28.264,8.112
28.268,8.064
28.272,8.036
28.276,8.088
28.28,8.08
28.284,8.068
28.288,8.036
28.292,8.076
28.296,8.096
28.3,8.088
28.304,8.032
28.308,8.048
28.312,8.072
28.316,8.108
28.32,8
28.324,8.04
28.328,8.104
28.332,8.08
28.336,8.04
28.34,8.036
28.344,8.072
28.348,8.08
28.352,8.064
28.356,8.032
28.36,8.044
28.364,8.04
28.368,8.052
28.372,8.012
28.376,8.068
28.38,8.084
28.384,8.052
28.388,8.016
28.392,8.092
28.396,8.108
28.4,8.076
28.404,7.98
28.408,8.028
28.412,8.084
28.416,8.084
28.42,8.008
28.424,8.036
28.428,8.052
28.432,8.072
28.436,8.004
28.44,8.016
28.444,8.092
28.448,8.08
28.452,8.064
28.456,8.008
28.46,8.064
28.464,8.072
28.468,8.056
28.472,8.012
28.476,8.1
28.48,8.108
28.484,8.088
28.488,8.016
28.492,8.06
28.496,8.088
28.5,8.064
28.504,7.992
28.508,8.02
28.512,8.076
28.516,8.072
28.52,8
28.524,8.028
28.528,8.096
28.532,8.076
28.536,8
28.54,8.032
28.544,8.108
28.548,8.084
28.552,8.02
28.556,8.016
28.56,8.072
28.564,8.064
28.568,8.06
28.572,8.012
28.576,8.056
28.58,8.084
28.584,8.06
28.588,8.004
28.592,8.044
28.596,8.056
28.6,8.044
28.604,8.012
28.608,8.04
28.612,8.092
28.616,8.072
28.62,8.016
28.624,8.032
28.628,8.124
28.632,8.092
28.636,8.068
28.64,8.02
28.644,8.108
28.648,8.096
28.652,8.096
28.656,8.004
28.66,8.056
28.664,8.068
28.668,8.056
28.672,8.064
28.676,8.072
28.68,8.092
28.684,8.06
28.688,8.016
28.692,8.084
28.696,8.108
28.7,8.064
28.704,8.016
28.708,8.06
28.712,8.1
28.716,8.064
28.72,8.004
28.724,8.06
28.728,8.108
28.732,8.064
28.736,8.068
28.74,8.04
28.744,8.116
28.748,8.1
28.752,8.076
28.756,8.032
28.76,8.1
28.764,8.128
28.768,8.1
28.772,8.032
28.776,8.084
28.78,8.104
28.784,8.076
28.788,8.028
28.792,8.092
28.796,8.144
28.8,8.1
28.804,8.032
28.808,8.06
28.812,8.128
28.816,8.116
28.82,8.028
28.824,8.06
28.828,8.148
28.832,8.104
28.836,8.036
28.84,8.048
28.844,8.116
28.848,8.108
28.852,8.12
28.856,8.068
28.86,8.124
28.864,8.152
28.868,8.176
28.872,8.156
28.876,8.184
28.88,8.2
28.884,8.24
28.888,8.192
28.892,8.24
28.896,8.344
28.9,8.36
28.904,8.332
28.908,8.368
28.912,8.444
28.916,8.412
28.92,8.352
28.924,8.364
28.928,8.36
28.932,8.388
28.936,8.312
28.94,8.236
28.944,8.248
28.948,8.168
28.952,8.116
28.956,8.04
28.96,8.096
28.964,8.064
28.968,8.064
28.972,8.024
28.976,8.084
28.98,8.104
28.984,8.052
28.988,8.016
28.992,8.044
28.996,8.064
29,7.94
29.004,7.772
29.008,7.932
29.012,8.172
29.016,8.572
29.02,9.256
29.024,10.06
29.028,10.88
29.032,11.184
29.036,9.988
29.04,9.1
29.044,8.556
29.048,8.12
29.052,8.02
29.056,8.004
29.06,8.144
29.064,8.088
29.068,8.012
29.072,7.976
29.076,8.012
29.08,8.008
29.084,7.992
29.088,7.924
29.092,7.992
29.096,8.02
29.1,8.016
29.104,7.948
29.108,7.948
29.112,8.004
29.116,7.996
29.12,7.94
29.124,7.98
29.128,8.036
29.132,7.98
29.136,7.928
29.14,7.948
29.144,8.008
29.148,8.004
29.152,7.944
29.156,7.96
29.16,8.028
29.164,8.024
29.168,7.996
29.172,7.936
29.176,7.984
29.18,8.012
29.184,7.968
29.188,7.944
29.192,8.024
29.196,8.048
29.2,8
29.204,7.916
29.208,8.012
29.212,8.036
29.216,8.016
29.22,7.94
29.224,7.984
29.228,8.072
29.232,8.032
29.236,7.98
29.24,7.98
29.244,8.068
29.248,8.044
29.252,8.028
29.256,7.976
29.26,8.148
29.264,8.096
29.268,8.088
29.272,8.016
29.276,8.12
29.28,8.124
29.284,8.08
29.288,8.056
29.292,8.228
29.296,8.228
29.3,8.204
29.304,8.144
29.308,8.252
29.312,8.34
29.316,8.32
29.32,8.284
29.324,8.312
29.328,8.428
29.332,8.432
29.336,8.388
29.34,8.448
29.344,8.572
29.348,8.596
29.352,8.576
29.356,8.588
29.36,8.704
29.364,8.716
29.368,8.712
29.372,8.696
29.376,8.816
29.38,8.86
29.384,8.792
29.388,8.756
29.392,8.824
29.396,8.824
29.4,8.712
29.404,8.64
29.408,8.656
29.412,8.676
29.416,8.62
29.42,8.48
29.424,8.432
29.428,8.484
29.432,8.408
29.436,8.336
29.44,8.26
29.444,8.36
29.448,8.312
29.452,8.24
29.456,8.192
29.46,8.24
29.464,8.224
29.468,8.168
29.472,8.136
29.476,8.168
29.48,8.192
29.484,8.12
29.488,8.072
29.492,8.124
29.496,8.148
29.5,8.108
29.504,8.076
29.508,8.104
29.512,8.152
29.516,8.132
29.52,8.064
29.524,8.088
29.528,8.164
29.532,8.112
29.536,8.088
29.54,8.084
29.544,8.14
29.548,8.116
29.552,8.068
29.556,8.08
29.56,8.112
29.564,8.14
29.568,8.092
29.572,8.088
29.576,8.172
29.58,8.192
29.584,8.096
29.588,8.096
29.592,8.164
29.596,8.18
29.6,8.14
29.604,8.088
29.608,8.16
29.612,8.232
29.616,8.196
29.62,8.128
29.624,8.156
29.628,8.192
29.632,8.184
29.636,8.132
29.64,8.12
29.644,8.188
29.648,8.2
29.652,8.148
29.656,8.136
29.66,8.212
29.664,8.184
29.668,8.132
29.672,8.088
29.676,8.18
29.68,8.224
29.684,8.164
29.688,8.096
29.692,8.128
29.696,8.204
29.7,8.14
29.704,8.092
29.708,8.128
29.712,8.196
29.716,8.116
29.72,8.08
29.724,8.096
29.728,8.164
29.732,8.132
29.736,8.092
29.74,8.108
29.744,8.176
29.748,8.156
29.752,8.108
29.756,8.104
29.76,8.184
29.764,8.164
29.768,8.116
29.772,8.064
29.776,8.128
29.78,8.172
29.784,8.124
29.788,8.068
29.792,8.108
29.796,8.148
29.8,8.092
29.804,8.064
29.808,8.1
29.812,8.168
29.816,8.14
29.82,8.064
29.824,8.128
29.828,8.152
29.832,8.128
29.836,8.084
29.84,8.064
29.844,8.144
29.848,8.14
29.852,8.1
29.856,8.076
29.86,8.124
29.864,8.144
29.868,8.096
29.872,8.064
29.876,8.124
29.88,8.156
29.884,8.112
29.888,8.064
29.892,8.136
29.896,8.188
29.9,8.152
29.904,8.06
29.908,8.076
29.912,8.168
29.916,8.16
29.92,8.072
29.924,8.088
29.928,8.164
29.932,8.132
29.936,8.096
29.94,8.108
29.944,8.168
29.948,8.152
29.952,8.096
29.956,8.084
29.96,8.12
29.964,8.172
29.968,8.088
29.972,8.06
29.976,8.128
29.98,8.168
29.984,8.1
29.988,8.06
29.992,8.128
29.996,8.188
30,8.164
30.004,8.08
30.008,8.112
30.012,8.176
30.016,8.152
30.02,8.108
30.024,8.1
30.028,8.18
30.032,8.136
30.036,8.052
30.04,8.104
30.044,8.144
30.048,8.164
30.052,8.104
30.056,8.112
30.06,8.156
30.064,8.236
30.068,8.144
30.072,8.088
30.076,8.132
30.08,8.16
30.084,8.112
30.088,8.044
30.092,8.136
30.096,8.156
30.1,8.088
30.104,8.084
30.108,8.152
30.112,8.22
30.116,8.132
30.12,8.068
30.124,8.112
30.128,8.168
30.132,8.152
30.136,8.092
30.14,8.1
30.144,8.192
30.148,8.16
30.152,8.14
30.156,8.112
30.16,8.136
30.164,8.192
30.168,8.12
30.172,8.08
30.176,8.12
30.18,8.164
30.184,8.132
30.188,8.08
30.192,8.176
30.196,8.24
30.2,8.14
30.204,8.108
30.208,8.108
30.212,8.176
30.216,8.148
30.22,8.112
30.224,8.124
30.228,8.176
30.232,8.14
30.236,8.104
30.24,8.136
30.244,8.176
30.248,8.188
30.252,8.124
30.256,8.128
30.26,8.172
30.264,8.184
30.268,8.112
30.272,8.088
30.276,8.148
30.28,8.196
30.284,8.128
30.288,8.068
30.292,8.144
30.296,8.196
30.3,8.132
30.304,8.084
30.308,8.184
30.312,8.244
30.316,8.188
30.32,8.088
30.324,8.144
30.328,8.208
30.332,8.192
30.336,8.16
30.34,8.184
30.344,8.248
30.348,8.276
30.352,8.196
30.356,8.196
30.36,8.292
30.364,8.332
30.368,8.3
30.372,8.3
30.376,8.408
30.38,8.512
30.384,8.444
30.388,8.388
30.392,8.44
30.396,8.496
30.4,8.396
30.404,8.364
30.408,8.428
30.412,8.432
30.416,8.332
30.42,8.164
30.424,8.14
30.428,8.18
30.432,8.12
30.436,8.092
30.44,8.096
30.444,8.188
30.448,8.132
30.452,8.052
30.456,8.024
30.46,8.104
30.464,8.136
30.468,8.06
30.472,7.912
30.476,7.888
30.48,7.996
30.484,8.12
30.488,8.416
30.492,9.228
30.496,10.084
30.5,10.756
30.504,11.176
30.508,10.208
30.512,9.356
30.516,8.644
30.52,8.116
30.524,8.048
30.528,8.124
30.532,8.164
30.536,8.036
30.54,8.024
30.544,8.084
30.548,8.124
30.552,8.04
30.556,7.992
30.56,8.052
30.564,8.08
30.568,8.004
30.572,7.96
30.576,8.032
30.58,8.08
30.584,8.008
30.588,7.94
30.592,7.992
30.596,8.052
30.6,8.028
30.604,7.952
30.608,8.028
30.612,8.056
30.616,8.032
30.62,8.004
30.624,8.016
30.628,8.052
30.632,8.06
30.636,7.988
30.64,8.016
30.644,8.068
30.648,8.084
30.652,8.008
30.656,7.968
30.66,8.06
30.664,8.072
30.668,8.024
30.672,7.988
30.676,8.028
30.68,8.068
30.684,8.016
30.688,7.984
30.692,8.044
30.696,8.104
30.7,8.068
30.704,8.016
30.708,8.044
30.712,8.132
30.716,8.104
30.72,8.06
30.724,8.1
30.728,8.12
30.732,8.12
30.736,8.064
30.74,8.084
30.744,8.156
30.748,8.208
30.752,8.1
30.756,8.084
30.76,8.2
30.764,8.236
30.768,8.176
30.772,8.168
30.776,8.272
30.78,8.352
30.784,8.332
30.788,8.288
30.792,8.356
30.796,8.436
30.8,8.42
30.804,8.392
30.808,8.452
30.812,8.568
30.816,8.6
30.82,8.58
30.824,8.66
30.828,8.736
30.832,8.756
30.836,8.728
30.84,8.736
30.844,8.804
30.848,8.884
30.852,8.82
30.856,8.804
30.86,8.872
30.864,8.884
30.868,8.804
30.872,8.772
30.876,8.828
30.88,8.824
30.884,8.692
30.888,8.584
30.892,8.604
30.896,8.62
30.9,8.536
30.904,8.4
30.908,8.408
30.912,8.42
30.916,8.356
30.92,8.316
30.924,8.28
30.928,8.336
30.932,8.304
30.936,8.208
30.94,8.236
30.944,8.288
30.948,8.244
30.952,8.148
30.956,8.132
30.96,8.204
30.964,8.256
30.968,8.14
30.972,8.076
30.976,8.152
30.98,8.216
30.984,8.152
30.988,8.112
30.992,8.16
30.996,8.22
31,8.16
31.004,8.14
31.008,8.132
31.012,8.188
31.016,8.128
31.02,8.104
31.024,8.14
31.028,8.204
31.032,8.18
31.036,8.092
31.04,8.136
31.044,8.204
31.048,8.24
31.052,8.172
31.056,8.148
31.06,8.248
31.064,8.296
31.068,8.22
31.072,8.14
31.076,8.216
31.08,8.272
31.084,8.208
31.088,8.172
31.092,8.204
31.096,8.272
31.1,8.2
31.104,8.148
31.108,8.208
31.112,8.296
31.116,8.244
31.12,8.172
31.124,8.164
31.128,8.244
31.132,8.296
31.136,8.172
31.14,8.192
31.144,8.216
31.148,8.256
31.152,8.156
31.156,8.108
31.16,8.176
31.164,8.232
31.168,8.164
31.172,8.124
31.176,8.216
31.18,8.26
31.184,8.172
31.188,8.088
31.192,8.172
31.196,8.26
31.2,8.192
31.204,8.128
31.208,8.172
31.212,8.204
31.216,8.184
31.22,8.132
31.224,8.144
31.228,8.2
31.232,8.208
31.236,8.14
31.24,8.136
31.244,8.212
31.248,8.188
31.252,8.092
31.256,8.092
31.26,8.196
31.264,8.228
31.268,8.12
31.272,8.104
31.276,8.164
31.28,8.236
31.284,8.156
31.288,8.14
31.292,8.168
31.296,8.232
31.3,8.172
31.304,8.116
31.308,8.144
31.312,8.208
31.316,8.18
31.32,8.092
31.324,8.128
31.328,8.224
31.332,8.188
31.336,8.108
31.34,8.084
31.344,8.192
31.348,8.22
31.352,8.12
31.356,8.076
31.36,8.16
31.364,8.212
31.368,8.124
31.372,8.112
31.376,8.184
31.38,8.224
31.384,8.132
31.388,8.12
31.392,8.192
31.396,8.232
31.4,8.156
31.404,8.1
31.408,8.16
31.412,8.208
31.416,8.188
31.42,8.096
31.424,8.124
31.428,8.188
31.432,8.188
31.436,8.12
31.44,8.14
31.444,8.236
31.448,8.22
31.452,8.136
31.456,8.084
31.46,8.18
31.464,8.192
31.468,8.16
31.472,8.092
31.476,8.176
31.48,8.232
31.484,8.144
31.488,8.088
31.492,8.172
31.496,8.228
31.5,8.18
31.504,8.136
31.508,8.16
31.512,8.208
31.516,8.192
31.52,8.14
31.524,8.18
31.528,8.208
31.532,8.176
31.536,8.112
31.54,8.116
31.544,8.2
31.548,8.2
31.552,8.104
31.556,8.084
31.56,8.2
31.564,8.236
31.568,8.164
31.572,8.116
31.576,8.2
31.58,8.244
31.584,8.144
31.588,8.128
31.592,8.172
31.596,8.244
31.6,8.176
31.604,8.132
31.608,8.16
31.612,8.224
31.616,8.212
31.62,8.128
31.624,8.164
31.628,8.228
31.632,8.212
31.636,8.096
31.64,8.1
31.644,8.228
31.648,8.248
31.652,8.148
31.656,8.128
31.66,8.212
31.664,8.256
31.668,8.164
31.672,8.144
31.676,8.224
31.68,8.26
31.684,8.172
31.688,8.136
31.692,8.208
31.696,8.272
31.7,8.192
31.704,8.124
31.708,8.188
31.712,8.224
31.716,8.176
31.72,8.12
31.724,8.148
31.728,8.212
31.732,8.22
31.736,8.144
31.74,8.124
31.744,8.208
31.748,8.232
31.752,8.168
31.756,8.164
31.76,8.212
31.764,8.272
31.768,8.184
31.772,8.172
31.776,8.256
31.78,8.304
31.784,8.284
31.788,8.228
31.792,8.296
31.796,8.396
31.8,8.32
31.804,8.256
31.808,8.352
31.812,8.448
31.816,8.488
31.82,8.372
31.824,8.444
31.828,8.496
31.832,8.5
31.836,8.42
31.84,8.392
31.844,8.476
31.848,8.464
31.852,8.36
31.856,8.292
31.86,8.348
31.864,8.328
31.868,8.144
31.872,8.1
31.876,8.188
31.88,8.224
31.884,8.152
31.888,8.084
31.892,8.1
31.896,8.152
31.9,8.128
31.904,8.072
31.908,8.12
31.912,8.128
31.916,7.956
31.92,7.844
31.924,8.008
31.928,8.32
31.932,8.924
31.936,9.616
31.94,10.416
31.944,11.168
31.948,10.952
31.952,9.7
31.956,8.928
31.96,8.464
31.964,8.192
31.968,8.06
31.972,8.14
31.976,8.16
31.98,8.144
31.984,8.052
31.988,8.008
31.992,8.084
31.996,8.152
32,8.08
32.004,8.004
32.008,8.048
32.012,8.104
32.016,8.048
32.02,7.988
32.024,8.044
32.028,8.128
32.032,8.144
32.036,8.032
32.04,8.004
32.044,8.124
32.048,8.132
32.052,8.036
32.056,8.008
32.06,8.1
32.064,8.132
32.068,8.044
32.072,7.984
32.076,8.068
32.08,8.14
32.084,8.056
32.088,7.996
32.092,8.068
32.096,8.136
32.1,8.08
32.104,8.004
32.108,8.068
32.112,8.116
32.116,8.06
32.12,8.04
32.124,8.044
32.128,8.124
32.132,8.116
32.136,8.032
32.14,8.044
32.144,8.128
32.148,8.148
32.152,8.096
32.156,8.044
32.16,8.12
32.164,8.176
32.168,8.104
32.172,8.048
32.176,8.164
32.18,8.228
32.184,8.192
32.188,8.116
32.192,8.2
32.196,8.244
32.2,8.22
32.204,8.136
32.208,8.248
32.212,8.316
32.216,8.288
32.22,8.252
32.224,8.284
32.228,8.408
32.232,8.444
32.236,8.348
32.24,8.34
32.244,8.516
32.248,8.572
32.252,8.544
32.256,8.52
32.26,8.652
32.264,8.724
32.268,8.676
32.272,8.708
32.276,8.8
32.28,8.86
32.284,8.852
32.288,8.808
32.292,8.884
32.296,8.948
32.3,8.916
32.304,8.836
32.308,8.888
32.312,8.92
32.316,8.848
32.32,8.716
32.324,8.716
32.328,8.76
32.332,8.692
32.336,8.548
32.34,8.488
32.344,8.54
32.348,8.5
32.352,8.392
32.356,8.336
32.36,8.4
32.364,8.432
32.368,8.3
32.372,8.252
32.376,8.324
32.38,8.344
32.384,8.224
32.388,8.184
32.392,8.22
32.396,8.292
32.4,8.228
32.404,8.12
32.408,8.172
32.412,8.216
32.416,8.18
32.42,8.096
32.424,8.132
32.428,8.2
32.432,8.176
32.436,8.108
32.44,8.112
32.444,8.2
32.448,8.252
32.452,8.12
32.456,8.076
32.46,8.168
32.464,8.228
32.468,8.152
32.472,8.112
32.476,8.244
32.48,8.26
32.484,8.184
32.488,8.136
32.492,8.196
32.496,8.264
32.5,8.216
32.504,8.152
32.508,8.212
32.512,8.272
32.516,8.224
32.52,8.156
32.524,8.184
32.528,8.292
32.532,8.296
32.536,8.188
32.54,8.188
32.544,8.252
32.548,8.288
32.552,8.208
32.556,8.172
32.56,8.248
32.564,8.28
32.568,8.216
32.572,8.204
32.576,8.264
32.58,8.296
32.584,8.22
32.588,8.188
32.592,8.232
32.596,8.244
32.6,8.228
32.604,8.116
32.608,8.188
32.612,8.272
32.616,8.22
32.62,8.164
32.624,8.164
32.628,8.248
32.632,8.244
32.636,8.164
32.64,8.156
32.644,8.2
32.648,8.252
32.652,8.136
32.656,8.144
32.66,8.232
32.664,8.216
32.668,8.168
32.672,8.136
32.676,8.236
32.68,8.268
32.684,8.184
32.688,8.12
32.692,8.184
32.696,8.208
32.7,8.188
32.704,8.116
32.708,8.172
32.712,8.216
32.716,8.192
32.72,8.112
32.724,8.12
32.728,8.24
32.732,8.236
32.736,8.148
32.74,8.14
32.744,8.22
32.748,8.24
32.752,8.156
32.756,8.128
32.76,8.22
32.764,8.276
32.768,8.176
32.772,8.148
32.776,8.208
32.78,8.228
32.784,8.144
32.788,8.116
32.792,8.192
32.796,8.212
32.8,8.196
32.804,8.128
32.808,8.148
32.812,8.204
32.816,8.192
32.82,8.1
32.824,8.128
32.828,8.252
32.832,8.244
32.836,8.144
32.84,8.12
32.844,8.176
32.848,8.268
32.852,8.128
32.856,8.136
32.86,8.228
32.864,8.248
32.868,8.132
32.872,8.112
32.876,8.212
32.88,8.236
32.884,8.164
32.888,8.104
32.892,8.196
32.896,8.26
32.9,8.208
32.904,8.092
32.908,8.152
32.912,8.244
32.916,8.232
32.92,8.144
32.924,8.184
32.928,8.248
32.932,8.232
32.936,8.156
32.94,8.144
32.944,8.192
32.948,8.236
32.952,8.136
32.956,8.128
32.96,8.204
32.964,8.232
32.968,8.16
32.972,8.112
32.976,8.208
32.98,8.272
32.984,8.184
32.988,8.124
32.992,8.208
32.996,8.232
33,8.212
33.004,8.112
33.008,8.168
33.012,8.232
33.016,8.228
33.02,8.128
33.024,8.164
33.028,8.26
33.032,8.2
33.036,8.148
33.04,8.112
33.044,8.22
33.048,8.232
33.052,8.132
33.056,8.132
33.06,8.244
33.064,8.272
33.068,8.176
33.072,8.124
33.076,8.212
33.08,8.24
33.084,8.172
33.088,8.112
33.092,8.192
33.096,8.244
33.1,8.16
33.104,8.104
33.108,8.152
33.112,8.252
33.116,8.224
33.12,8.12
33.124,8.132
33.128,8.216
33.132,8.228
33.136,8.124
33.14,8.116
33.144,8.204
33.148,8.256
33.152,8.156
33.156,8.148
33.16,8.216
33.164,8.244
33.168,8.176
33.172,8.14
33.176,8.216
33.18,8.268
33.184,8.196
33.188,8.144
33.192,8.216
33.196,8.268
33.2,8.208
33.204,8.096
33.208,8.16
33.212,8.22
33.216,8.24
33.22,8.14
33.224,8.176
33.228,8.288
33.232,8.236
33.236,8.144
33.24,8.172
33.244,8.26
33.248,8.324
33.252,8.208
33.256,8.22
33.26,8.308
33.264,8.344
33.268,8.248
33.272,8.236
33.276,8.336
33.28,8.384
33.284,8.32
33.288,8.288
33.292,8.428
33.296,8.568
33.3,8.5
33.304,8.424
33.308,8.464
33.312,8.556
33.316,8.504
33.32,8.404
33.324,8.416
33.328,8.5
33.332,8.444
33.336,8.312
33.34,8.252
33.344,8.3
33.348,8.272
33.352,8.168
33.356,8.16
33.36,8.256
33.364,8.216
33.368,8.112
33.372,8.088
33.376,8.14
33.38,8.208
33.384,8.14
33.388,8.064
33.392,8.04
33.396,7.972
33.4,7.984
33.404,8.088
33.408,8.448
33.412,9.244
33.416,10.012
33.42,10.672
33.424,11.268
33.428,10.6
33.432,9.54
33.436,8.708
33.44,8.18
33.444,8.12
33.448,8.18
33.452,8.188
33.456,8.14
33.46,8.136
33.464,8.192
33.468,8.096
33.472,8.044
33.476,8.084
33.48,8.12
33.484,8.076
33.488,8.008
33.492,8.044
33.496,8.112
33.5,8.08
33.504,7.996
33.508,8.02
33.512,8.104
33.516,8.088
33.52,8.004
33.524,8.012
33.528,8.132
33.532,8.148
33.536,8.056
33.54,8.024
33.544,8.104
33.548,8.116
33.552,8.024
33.556,8.004
33.56,8.112
33.564,8.144
33.568,8.06
33.572,7.984
33.576,8.088
33.58,8.124
33.584,8.056
33.588,7.98
33.592,8.06
33.596,8.132
33.6,8.096
33.604,8.016
33.608,8.024
33.612,8.128
33.616,8.12
33.62,8.016
33.624,8.056
33.628,8.156
33.632,8.16
33.636,8.088
33.64,8.108
33.644,8.156
33.648,8.172
33.652,8.1
33.656,8.052
33.66,8.164
33.664,8.232
33.668,8.14
33.672,8.112
33.676,8.184
33.68,8.26
33.684,8.196
33.688,8.188
33.692,8.244
33.696,8.336
33.7,8.324
33.704,8.244
33.708,8.328
33.712,8.432
33.716,8.448
33.72,8.356
33.724,8.46
33.728,8.592
33.732,8.612
33.736,8.532
33.74,8.556
33.744,8.688
33.748,8.772
33.752,8.728
33.756,8.736
33.76,8.868
33.764,8.92
33.768,8.832
33.772,8.804
33.776,8.9
33.78,8.936
33.784,8.892
33.788,8.812
33.792,8.864
33.796,8.876
33.8,8.788
33.804,8.676
33.808,8.652
33.812,8.656
33.816,8.624
33.82,8.444
33.824,8.4
33.828,8.512
33.832,8.496
33.836,8.356
33.84,8.316
33.844,8.364
33.848,8.332
33.852,8.248
33.856,8.204
33.86,8.276
33.864,8.316
33.868,8.22
33.872,8.176
33.876,8.244
33.88,8.268
33.884,8.184
33.888,8.104
33.892,8.168
33.896,8.26
33.9,8.208
33.904,8.12
33.908,8.132
33.912,8.192
33.916,8.184
33.92,8.092
33.924,8.104
33.928,8.192
33.932,8.2
33.936,8.096
33.94,8.104
33.944,8.188
33.948,8.212
33.952,8.124
33.956,8.08
33.96,8.192
33.964,8.268
33.968,8.18
33.972,8.128
33.976,8.204
33.98,8.256
33.984,8.2
33.988,8.132
33.992,8.164
33.996,8.24
34,8.192
34.004,8.148
34.008,8.188
34.012,8.26
34.016,8.284
34.02,8.192
34.024,8.176
34.028,8.252
34.032,8.292
34.036,8.148
34.04,8.16
34.044,8.24
34.048,8.256
34.052,8.168
34.056,8.136
34.06,8.22
34.064,8.272
34.068,8.184
34.072,8.116
34.076,8.192
34.08,8.22
34.084,8.188
34.088,8.096
34.092,8.184
34.096,8.244
34.1,8.208
34.104,8.112
34.108,8.148
34.112,8.256
34.116,8.236
34.12,8.112
34.124,8.128
34.128,8.176
34.132,8.196
34.136,8.128
34.14,8.108
34.144,8.184
34.148,8.232
34.152,8.148
34.156,8.112
34.16,8.168
34.164,8.224
34.168,8.136
34.172,8.064
34.176,8.164
34.18,8.24
34.184,8.156
34.188,8.072
34.192,8.144
34.196,8.232
34.2,8.192
34.204,8.096
34.208,8.128
34.212,8.204
34.216,8.196
34.22,8.1
34.224,8.116
34.228,8.18
34.232,8.204
34.236,8.08
34.24,8.12
34.244,8.192
34.248,8.232
34.252,8.1
34.256,8.096
34.26,8.172
34.264,8.228
34.268,8.136
34.272,8.08
34.276,8.16
34.28,8.208
34.284,8.18
34.288,8.096
34.292,8.128
34.296,8.172
34.3,8.156
34.304,8.088
34.308,8.132
34.312,8.24
34.316,8.228
34.32,8.108
34.324,8.116
34.328,8.196
34.332,8.2
34.336,8.104
34.34,8.104
34.344,8.168
34.348,8.228
34.352,8.124
34.356,8.088
34.36,8.148
34.364,8.188
34.368,8.14
34.372,8.1
34.376,8.144
34.38,8.224
34.384,8.176
34.388,8.136
34.392,8.184
34.396,8.236
34.4,8.176
34.404,8.072
34.408,8.108
34.412,8.204
34.416,8.188
34.42,8.092
34.424,8.124
34.428,8.2
34.432,8.244
34.436,8.136
34.44,8.104
34.444,8.22
34.448,8.228
34.452,8.136
34.456,8.104
34.46,8.192
34.464,8.216
34.468,8.156
34.472,8.076
34.476,8.148
34.48,8.2
34.484,8.16
34.488,8.132
34.492,8.196
34.496,8.256
34.5,8.208
34.504,8.052
34.508,8.104
34.512,8.188
34.516,8.208
34.52,8.128
34.524,8.136
34.528,8.196
34.532,8.2
34.536,8.132
34.54,8.116
34.544,8.22
34.548,8.228
34.552,8.148
34.556,8.076
34.56,8.16
34.564,8.216
34.568,8.168
34.572,8.092
34.576,8.16
34.58,8.204
34.584,8.188
34.588,8.116
34.592,8.168
34.596,8.236
34.6,8.212
34.604,8.12
34.608,8.176
34.612,8.232
34.616,8.232
34.62,8.104
34.624,8.124
34.628,8.196
34.632,8.2
34.636,8.136
34.64,8.144
34.644,8.216
34.648,8.272
34.652,8.136
34.656,8.104
34.66,8.192
34.664,8.24
34.668,8.164
34.672,8.116
34.676,8.168
34.68,8.212
34.684,8.16
34.688,8.092
34.692,8.196
34.696,8.256
34.7,8.216
34.704,8.108
34.708,8.188
34.712,8.244
34.716,8.212
34.72,8.128
34.724,8.16
34.728,8.192
34.732,8.224
34.736,8.192
34.74,8.168
34.744,8.212
34.748,8.232
34.752,8.132
34.756,8.192
34.76,8.216
34.764,8.264
34.768,8.224
34.772,8.164
34.776,8.26
34.78,8.332
34.784,8.292
34.788,8.232
34.792,8.276
34.796,8.364
34.8,8.38
34.804,8.352
34.808,8.42
34.812,8.488
34.816,8.508
34.82,8.444
34.824,8.444
34.828,8.512
34.832,8.492
34.836,8.4
34.84,8.4
34.844,8.392
34.848,8.356
34.852,8.204
34.856,8.144
34.86,8.208
34.864,8.256
34.868,8.168
34.872,8.076
34.876,8.1
34.88,8.172
34.884,8.164
34.888,8.092
34.892,8.092
34.896,8.168
34.9,8.152
34.904,7.976
34.908,7.904
34.912,8
34.916,8.14
34.92,8.32
34.924,9.016
34.928,9.876
34.932,10.636
34.936,11.14
34.94,10.516
34.944,9.528
34.948,8.864
34.952,8.224
34.956,8.02
34.96,8.048
34.964,8.204
34.968,8.116
34.972,7.988
34.976,8.052
34.98,8.132
34.984,8.088
34.988,8.012
34.992,8.052
34.996,8.1
35,8.092
35.004,7.988
35.008,8.008
35.012,8.1
35.016,8.116
35.02,8.008
35.024,8
35.028,8.08
35.032,8.12
35.036,8.02
35.04,8.02
35.044,8.056
35.048,8.104
35.052,8.04
35.056,8.012
35.06,8.032
35.064,8.06
35.068,8.036
35.072,7.98
35.076,8.036
35.08,8.104
35.084,8.084
35.088,8
35.092,8.052
35.096,8.112
35.1,8.108
35.104,7.988
35.108,8.024
35.112,8.092
35.116,8.084
35.12,7.996
35.124,8.036
35.128,8.084
35.132,8.1
35.136,8.032
35.14,8.02
35.144,8.132
35.148,8.128
35.152,8.08
35.156,8.048
35.16,8.132
35.164,8.168
35.168,8.144
35.172,8.076
35.176,8.116
35.18,8.196
35.184,8.2
35.188,8.124
35.192,8.16
35.196,8.236
35.2,8.224
35.204,8.2
35.208,8.224
35.212,8.328
35.216,8.336
35.22,8.292
35.224,8.316
35.228,8.448
35.232,8.468
35.236,8.48
35.24,8.464
35.244,8.536
35.248,8.64
35.252,8.616
35.256,8.616
35.26,8.716
35.264,8.788
35.268,8.768
35.272,8.752
35.276,8.84
35.28,8.904
35.284,8.896
35.288,8.812
35.292,8.888
35.296,8.94
35.3,8.92
35.304,8.776
35.308,8.772
35.312,8.812
35.316,8.772
35.32,8.628
35.324,8.6
35.328,8.6
35.332,8.584
35.336,8.46
35.34,8.396
35.344,8.444
35.348,8.464
35.352,8.344
35.356,8.272
35.36,8.34
35.364,8.328
35.368,8.284
35.372,8.224
35.376,8.236
35.38,8.284
35.384,8.24
35.388,8.156
35.392,8.164
35.396,8.216
35.4,8.192
35.404,8.116
35.408,8.152
35.412,8.22
35.416,8.2
35.42,8.14
35.424,8.156
35.428,8.204
35.432,8.192
35.436,8.116
35.44,8.144
35.444,8.188
35.448,8.228
35.452,8.128
35.456,8.072
35.46,8.168
35.464,8.228
35.468,8.152
35.472,8.108
35.476,8.18
35.48,8.24
35.484,8.22
35.488,8.156
35.492,8.176
35.496,8.26
35.5,8.24
35.504,8.176
35.508,8.204
35.512,8.268
35.516,8.256
35.52,8.18
35.524,8.188
35.528,8.232
35.532,8.268
35.536,8.156
35.54,8.164
35.544,8.256
35.548,8.288
35.552,8.216
35.556,8.16
35.56,8.248
35.564,8.26
35.568,8.212
35.572,8.152
35.576,8.208
35.58,8.24
35.584,8.2
35.588,8.128
35.592,8.192
35.596,8.252
35.6,8.204
35.604,8.128
35.608,8.144
35.612,8.18
35.616,8.196
35.62,8.132
35.624,8.144
35.628,8.212
35.632,8.22
35.636,8.176
35.64,8.136
35.644,8.192
35.648,8.224
35.652,8.152
35.656,8.12
35.66,8.188
35.664,8.224
35.668,8.18
35.672,8.124
35.676,8.184
35.68,8.224
35.684,8.192
35.688,8.1
35.692,8.152
35.696,8.224
35.7,8.184
35.704,8.096
35.708,8.124
35.712,8.2
35.716,8.172
35.72,8.088
35.724,8.128
35.728,8.192
35.732,8.208
35.736,8.128
35.74,8.124
35.744,8.184
35.748,8.22
35.752,8.148
35.756,8.112
35.76,8.176
35.764,8.22
35.768,8.2
35.772,8.088
35.776,8.148
35.78,8.192
35.784,8.192
35.788,8.108
35.792,8.14
35.796,8.2
35.8,8.172
35.804,8.064
35.808,8.12
35.812,8.2
35.816,8.176
35.82,8.1
35.824,8.112
35.828,8.196
35.832,8.196
35.836,8.128
35.84,8.116
35.844,8.192
35.848,8.236
35.852,8.164
35.856,8.092
35.86,8.192
35.864,8.204
35.868,8.156
35.872,8.088
35.876,8.16
35.88,8.212
35.884,8.168
35.888,8.076
35.892,8.156
35.896,8.192
35.9,8.184
35.904,8.096
35.908,8.108
35.912,8.184
35.916,8.196
35.92,8.124
35.924,8.128
35.928,8.236
35.932,8.184
35.936,8.124
35.94,8.136
35.944,8.192
35.948,8.192
35.952,8.128
35.956,8.084
35.96,8.16
35.964,8.192
35.968,8.14
35.972,8.092
35.976,8.16
35.98,8.224
35.984,8.164
35.988,8.08
35.992,8.144
35.996,8.232
36,8.196
36.004,8.144
36.008,8.112
36.012,8.18
36.016,8.156
36.02,8.132
36.024,8.144
36.028,8.228
36.032,8.216
36.036,8.112
36.04,8.092
36.044,8.212
36.048,8.22
36.052,8.136
36.056,8.084
36.06,8.168
36.064,8.208
36.068,8.144
36.072,8.08
36.076,8.144
36.08,8.22
36.084,8.208
36.088,8.128
36.092,8.144
36.096,8.18
36.1,8.184
36.104,8.104
36.108,8.172
36.112,8.232
36.116,8.196
36.12,8.116
36.124,8.108
36.128,8.216
36.132,8.232
36.136,8.152
36.14,8.112
36.144,8.212
36.148,8.216
36.152,8.132
36.156,8.112
36.16,8.176
36.164,8.212
36.168,8.164
36.172,8.128
36.176,8.16
36.18,8.212
36.184,8.188
36.188,8.112
36.192,8.172
36.196,8.228
36.2,8.232
36.204,8.128
36.208,8.136
36.212,8.22
36.216,8.216
36.22,8.104
36.224,8.12
36.228,8.216
36.232,8.216
36.236,8.16
36.24,8.168
36.244,8.24
36.248,8.244
36.252,8.136
36.256,8.104
36.26,8.184
36.264,8.248
36.268,8.212
36.272,8.176
36.276,8.244
36.28,8.332
36.284,8.28
36.288,8.188
36.292,8.276
36.296,8.372
36.3,8.348
36.304,8.34
36.308,8.42
36.312,8.496
36.316,8.508
36.32,8.452
36.324,8.452
36.328,8.488
36.332,8.484
36.336,8.368
36.34,8.372
36.344,8.456
36.348,8.396
36.352,8.28
36.356,8.172
36.36,8.22
36.364,8.232
36.368,8.164
36.372,8.076
36.376,8.148
36.38,8.196
36.384,8.148
36.388,8.064
36.392,8.132
36.396,8.208
36.4,8.192
36.404,8.08
36.408,7.976
36.412,7.916
36.416,8
36.42,8.144
36.424,8.6
36.428,9.46
36.432,10.252
36.436,10.92
36.44,11.208
36.444,10.124
36.448,9.268
36.452,8.572
36.456,8.084
36.46,8.096
36.464,8.172
36.468,8.18
36.472,8.072
36.476,8.08
36.48,8.108
36.484,8.072
36.488,8.004
36.492,8.056
36.496,8.128
36.5,8.088
36.504,8.024
36.508,8.04
36.512,8.116
36.516,8.112
36.52,8.032
36.524,8.032
36.528,8.072
36.532,8.08
36.536,8.044
36.54,7.992
36.544,8.068
36.548,8.1
36.552,8.052
36.556,8.02
36.56,8.072
36.564,8.112
36.568,8.048
36.572,7.992
36.576,8.036
36.58,8.112
36.584,8.1
36.588,7.992
36.592,8.036
36.596,8.112
36.6,8.088
36.604,8.008
36.608,8.052
36.612,8.108
36.616,8.084
36.62,8.032
36.624,8.028
36.628,8.116
36.632,8.12
36.636,8.08
36.64,8.044
36.644,8.148
36.648,8.172
36.652,8.112
36.656,8.024
36.66,8.12
36.664,8.176
36.668,8.136
36.672,8.1
36.676,8.132
36.68,8.244
36.684,8.224
36.688,8.124
36.692,8.2
36.696,8.264
36.7,8.26
36.704,8.204
36.708,8.256
36.712,8.348
36.716,8.344
36.72,8.296
36.724,8.348
36.728,8.432
36.732,8.452
36.736,8.392
36.74,8.456
36.744,8.568
36.748,8.64
36.752,8.592
36.756,8.616
36.76,8.72
36.764,8.804
36.768,8.784
36.772,8.72
36.776,8.844
36.78,8.936
36.784,8.92
36.788,8.836
36.792,8.924
36.796,9.008
36.8,8.94
36.804,8.764
36.808,8.792
36.812,8.852
36.816,8.824
36.82,8.672
36.824,8.652
36.828,8.692
36.832,8.644
36.836,8.504
36.84,8.444
36.844,8.456
36.848,8.44
36.852,8.364
36.856,8.308
36.86,8.392
36.864,8.364
36.868,8.336
36.872,8.212
36.876,8.252
36.88,8.304
36.884,8.252
36.888,8.14
36.892,8.224
36.896,8.296
36.9,8.256
36.904,8.116
36.908,8.152
36.912,8.212
36.916,8.184
36.92,8.108
36.924,8.164
36.928,8.248
36.932,8.208
36.936,8.136
36.94,8.148
36.944,8.192
36.948,8.208
36.952,8.14
36.956,8.104
36.96,8.196
36.964,8.236
36.968,8.208
36.972,8.104
36.976,8.196
36.98,8.248
36.984,8.212
36.988,8.084
36.992,8.192
36.996,8.28
37,8.244
37.004,8.128
37.008,8.2
37.012,8.252
37.016,8.224
37.02,8.152
37.024,8.176
37.028,8.26
37.032,8.28
37.036,8.188
37.04,8.172
37.044,8.224
37.048,8.256
37.052,8.208
37.056,8.184
37.06,8.244
37.064,8.256
37.068,8.224
37.072,8.132
37.076,8.228
37.08,8.248
37.084,8.232
37.088,8.14
37.092,8.228
37.096,8.268
37.1,8.26
37.104,8.124
37.108,8.18
37.112,8.212
37.116,8.216
37.12,8.12
37.124,8.148
37.128,8.228
37.132,8.236
37.136,8.164
37.14,8.14
37.144,8.216
37.148,8.224
37.152,8.184
37.156,8.1
37.16,8.208
37.164,8.22
37.168,8.192
37.172,8.1
37.176,8.184
37.18,8.24
37.184,8.208
37.188,8.084
37.192,8.176
37.196,8.22
37.2,8.2
37.204,8.096
37.208,8.16
37.212,8.192
37.216,8.168
37.22,8.124
37.224,8.112
37.228,8.18
37.232,8.208
37.236,8.132
37.24,8.108
37.244,8.224
37.248,8.236
37.252,8.164
37.256,8.088
37.26,8.192
37.264,8.24
37.268,8.176
37.272,8.08
37.276,8.176
37.28,8.224
37.284,8.192
37.288,8.1
37.292,8.176
37.296,8.212
37.3,8.192
37.304,8.096
37.308,8.14
37.312,8.188
37.316,8.172
37.32,8.104
37.324,8.128
37.328,8.2
37.332,8.184
37.336,8.128
37.34,8.144
37.344,8.196
37.348,8.204
37.352,8.192
37.356,8.108
37.36,8.152
37.364,8.196
37.368,8.176
37.372,8.064
37.376,8.204
37.38,8.228
37.384,8.192
37.388,8.108
37.392,8.172
37.396,8.216
37.4,8.192
37.404,8.112
37.408,8.156
37.412,8.2
37.416,8.216
37.42,8.136
37.424,8.172
37.428,8.224
37.432,8.22
37.436,8.172
37.44,8.096
37.444,8.204
37.448,8.248
37.452,8.164
37.456,8.104
37.46,8.2
37.464,8.236
37.468,8.2
37.472,8.092
37.476,8.164
37.48,8.216
37.484,8.184
37.488,8.056
37.492,8.148
37.496,8.208
37.5,8.216
37.504,8.152
37.508,8.184
37.512,8.236
37.516,8.212
37.52,8.124
37.524,8.176
37.528,8.216
37.532,8.208
37.536,8.152
37.54,8.096
37.544,8.24
37.548,8.232
37.552,8.204
37.556,8.108
37.56,8.176
37.564,8.224
37.568,8.188
37.572,8.108
37.576,8.176
37.58,8.232
37.584,8.196
37.588,8.088
37.592,8.196
37.596,8.212
37.6,8.188
37.604,8.124
37.608,8.184
37.612,8.252
37.616,8.236
37.62,8.128
37.624,8.168
37.628,8.248
37.632,8.224
37.636,8.172
37.64,8.172
37.644,8.252
37.648,8.24
37.652,8.136
37.656,8.08
37.66,8.216
37.664,8.22
37.668,8.192
37.672,8.124
37.676,8.196
37.68,8.252
37.684,8.212
37.688,8.124
37.692,8.2
37.696,8.256
37.7,8.212
37.704,8.148
37.708,8.188
37.712,8.232
37.716,8.224
37.72,8.192
37.724,8.192
37.728,8.228
37.732,8.248
37.736,8.2
37.74,8.148
37.744,8.228
37.748,8.26
37.752,8.208
37.756,8.144
37.76,8.256
37.764,8.284
37.768,8.216
37.772,8.092
37.776,8.184
37.78,8.28
37.784,8.236
37.788,8.14
37.792,8.228
37.796,8.304
37.8,8.312
37.804,8.244
37.808,8.264
37.812,8.36
37.816,8.348
37.82,8.304
37.824,8.312
37.828,8.392
37.832,8.424
37.836,8.464
37.84,8.392
37.844,8.516
37.848,8.532
37.852,8.516
37.856,8.404
37.86,8.496
37.864,8.54
37.868,8.5
37.872,8.324
37.876,8.368
37.88,8.38
37.884,8.26
37.888,8.112
37.892,8.216
37.896,8.244
37.9,8.192
37.904,8.1
37.908,8.156
37.912,8.252
37.916,8.192
37.92,8.132
37.924,8.124
37.928,8.224
37.932,8.16
37.936,7.936
37.94,7.844
37.944,8.108
37.948,8.32
37.952,8.88
37.956,9.568
37.96,10.456
37.964,11.16
37.968,11.036
37.972,9.74
37.976,9.064
37.98,8.512
37.984,8.128
37.988,7.984
37.992,8.192
37.996,8.292
38,8.152
38.004,8.016
38.008,8.052
38.012,8.16
38.016,8.168
38.02,8.084
38.024,8.036
38.028,8.104
38.032,8.104
38.036,8.056
38.04,8.012
38.044,8.084
38.048,8.12
38.052,8.064
38.056,8.012
38.06,8.108
38.064,8.136
38.068,8.076
38.072,7.992
38.076,8.108
38.08,8.156
38.084,8.072
38.088,7.98
38.092,8.044
38.096,8.12
38.1,8.08
38.104,8.004
38.108,8.076
38.112,8.108
38.116,8.096
38.12,8.012
38.124,8.012
38.128,8.152
38.132,8.144
38.136,8.06
38.14,8.036
38.144,8.12
38.148,8.156
38.152,8.068
38.156,8.02
38.16,8.08
38.164,8.124
38.168,8.12
38.172,8.04
38.176,8.132
38.18,8.184
38.184,8.132
38.188,8.032
38.192,8.132
38.196,8.22
38.2,8.168
38.204,8.104
38.208,8.136
38.212,8.248
38.216,8.236
38.22,8.18
38.224,8.16
38.228,8.304
38.232,8.32
38.236,8.272
38.24,8.228
38.244,8.384
38.248,8.396
38.252,8.4
38.256,8.356
38.26,8.476
38.264,8.524
38.268,8.508
38.272,8.48
38.276,8.6
38.28,8.688
38.284,8.68
38.288,8.648
38.292,8.764
38.296,8.836
38.3,8.828
38.304,8.804
38.308,8.828
38.312,8.952
38.316,8.976
38.32,8.896
38.324,8.884
38.328,8.964
38.332,8.944
38.336,8.844
38.34,8.776
38.344,8.828
38.348,8.792
38.352,8.652
38.356,8.536
38.36,8.62
38.364,8.608
38.368,8.516
38.372,8.392
38.376,8.464
38.38,8.472
38.384,8.4
38.388,8.24
38.392,8.312
38.396,8.376
38.4,8.284
38.404,8.204
38.408,8.216
38.412,8.28
38.416,8.268
38.42,8.216
38.424,8.192
38.428,8.288
38.432,8.268
38.436,8.204
38.44,8.136
38.444,8.244
38.448,8.224
38.452,8.18
38.456,8.096
38.46,8.24
38.464,8.24
38.468,8.18
38.472,8.112
38.476,8.196
38.48,8.248
38.484,8.192
38.488,8.108
38.492,8.176
38.496,8.248
38.5,8.184
38.504,8.164
38.508,8.188
38.512,8.292
38.516,8.248
38.52,8.148
38.524,8.148
38.528,8.272
38.532,8.272
38.536,8.224
38.54,8.176
38.544,8.272
38.548,8.296
38.552,8.228
38.556,8.18
38.56,8.272
38.564,8.288
38.568,8.208
38.572,8.184
38.576,8.244
38.58,8.3
38.584,8.252
38.588,8.144
38.592,8.224
38.596,8.288
38.6,8.26
38.604,8.208
38.608,8.212
38.612,8.26
38.616,8.232
38.62,8.192
38.624,8.14
38.628,8.28
38.632,8.248
38.636,8.2
38.64,8.156
38.644,8.252
38.648,8.252
38.652,8.176
38.656,8.128
38.66,8.228
38.664,8.268
38.668,8.188
38.672,8.104
38.676,8.192
38.68,8.268
38.684,8.216
38.688,8.1
38.692,8.196
38.696,8.252
38.7,8.192
38.704,8.128
38.708,8.14
38.712,8.228
38.716,8.2
38.72,8.14
38.724,8.16
38.728,8.268
38.732,8.196
38.736,8.152
38.74,8.136
38.744,8.196
38.748,8.204
38.752,8.144
38.756,8.084
38.76,8.204
38.764,8.252
38.768,8.212
38.772,8.116
38.776,8.172
38.78,8.228
38.784,8.164
38.788,8.116
38.792,8.168
38.796,8.236
38.8,8.208
38.804,8.132
38.808,8.164
38.812,8.232
38.816,8.18
38.82,8.12
38.824,8.124
38.828,8.24
38.832,8.212
38.836,8.164
38.84,8.088
38.844,8.192
38.848,8.232
38.852,8.18
38.856,8.12
38.86,8.172
38.864,8.2
38.868,8.176
38.872,8.156
38.876,8.172
38.88,8.176
38.884,8.136
38.888,8.072
38.892,8.148
38.896,8.236
38.9,8.18
38.904,8.124
38.908,8.124
38.912,8.236
38.916,8.2
38.92,8.172
38.924,8.112
38.928,8.224
38.932,8.212
38.936,8.18
38.94,8.104
38.944,8.204
38.948,8.22
38.952,8.136
38.956,8.096
38.96,8.188
38.964,8.236
38.968,8.124
38.972,8.072
38.976,8.172
38.98,8.248
38.984,8.188
38.988,8.116
38.992,8.136
38.996,8.2
39,8.192
39.004,8.148
39.008,8.14
39.012,8.24
39.016,8.2
39.02,8.136
39.024,8.12
39.028,8.244
39.032,8.22
39.036,8.136
39.04,8.088
39.044,8.188
39.048,8.228
39.052,8.14
39.056,8.104
39.06,8.184
39.064,8.24
39.068,8.16
39.072,8.104
39.076,8.184
39.08,8.232
39.084,8.196
39.088,8.092
39.092,8.128
39.096,8.248
39.1,8.188
39.104,8.164
39.108,8.144
39.112,8.26
39.116,8.204
39.12,8.148
39.124,8.084
39.128,8.204
39.132,8.212
39.136,8.168
39.14,8.1
39.144,8.196
