0,8.204
0.004,8.156
0.008,8.12
0.012,8.172
0.016,8.188
0.02,8.172
0.024,8.132
0.028,8.18
0.032,8.236
0.036,8.204
0.04,8.124
0.044,8.184
0.048,8.256
0.052,8.22
0.056,8.144
0.06,8.176
0.064,8.276
0.068,8.264
0.072,8.22
0.076,8.204
0.08,8.284
0.084,8.344
0.088,8.3
0.092,8.3
0.096,8.364
0.1,8.4
0.104,8.388
0.108,8.36
0.112,8.448
0.116,8.536
0.12,8.488
0.124,8.464
0.128,8.524
0.132,8.604
0.136,8.596
0.14,8.568
0.144,8.62
0.148,8.684
0.152,8.696
0.156,8.652
0.16,8.656
0.164,8.728
0.168,8.692
0.172,8.632
0.176,8.612
0.18,8.648
0.184,8.644
0.188,8.56
0.192,8.484
0.196,8.516
0.2,8.512
0.204,8.44
0.208,8.332
0.212,8.352
0.216,8.36
0.22,8.312
0.224,8.208
0.228,8.232
0.232,8.248
0.236,8.2
0.24,8.164
0.244,8.164
0.248,8.236
0.252,8.188
0.256,8.116
0.26,8.12
0.264,8.18
0.268,8.188
0.272,8.136
0.276,8.116
0.28,8.184
0.284,8.188
0.288,8.156
0.292,8.124
0.296,8.196
0.3,8.216
0.304,8.184
0.308,8.148
0.312,8.216
0.316,8.208
0.32,8.168
0.324,8.112
0.328,8.172
0.332,8.232
0.336,8.192
0.34,8.128
0.344,8.176
0.348,8.244
0.352,8.2
0.356,8.152
0.36,8.156
0.364,8.212
0.368,8.216
0.372,8.156
0.376,8.132
0.38,8.204
0.384,8.208
0.388,8.144
0.392,8.144
0.396,8.192
0.4,8.204
0.404,8.16
0.408,8.104
0.412,8.156
0.416,8.236
0.42,8.176
0.424,8.12
0.428,8.152
0.432,8.188
0.436,8.188
0.44,8.128
0.444,8.152
0.448,8.224
0.452,8.192
0.456,8.132
0.46,8.164
0.464,8.192
0.468,8.164
0.472,8.14
0.476,8.104
0.48,8.184
0.484,8.176
0.488,8.14
0.492,8.112
0.496,8.18
0.5,8.212
0.504,8.164
0.508,8.124
0.512,8.164
0.516,8.188
0.52,8.136
0.524,8.092
0.528,8.136
0.532,8.176
0.536,8.152
0.54,8.08
0.544,8.12
0.548,8.196
0.552,8.164
0.556,8.112
0.56,8.12
0.564,8.184
0.568,8.144
0.572,8.108
0.576,8.116
0.58,8.152
0.584,8.132
0.588,8.088
0.592,8.072
0.596,8.14
0.6,8.176
0.604,8.104
0.608,8.084
0.612,8.152
0.616,8.192
0.62,8.112
0.624,8.096
0.628,8.1
0.632,8.176
0.636,8.116
0.64,8.056
0.644,8.068
0.648,8.124
0.652,8.104
0.656,8.104
0.66,8.108
0.664,8.164
0.668,8.148
0.672,8.088
0.676,8.092
0.68,8.148
0.684,8.124
0.688,8.076
0.692,8.076
0.696,8.168
0.7,8.2
0.704,8.152
0.708,8.136
0.712,8.204
0.716,8.248
0.72,8.236
0.724,8.212
0.728,8.284
0.732,8.324
0.736,8.28
0.74,8.264
0.744,8.28
0.748,8.344
0.752,8.292
0.756,8.204
0.76,8.244
0.764,8.32
0.768,8.244
0.772,8.072
0.776,8.04
0.78,8.116
0.784,8.112
0.788,8.04
0.792,8.008
0.796,8.08
0.8,8.104
0.804,8.052
0.808,8
0.812,8.044
0.816,8.052
0.82,8.016
0.824,7.968
0.828,8.012
0.832,8.04
0.836,7.936
0.84,7.848
0.844,7.82
0.848,7.928
0.852,8.336
0.856,9.04
0.86,9.944
0.864,10.9
0.868,10.868
0.872,10.248
0.876,9.868
0.88,9.624
0.884,9.128
0.888,8.632
0.892,8.3
0.896,8.212
0.9,8.204
0.904,8.144
0.908,8.084
0.912,8.092
0.916,8.1
0.92,8.024
0.924,7.972
0.928,7.996
0.932,8.032
0.936,7.996
0.94,7.952
0.944,7.98
0.948,8.024
0.952,7.992
0.956,7.968
0.96,7.968
0.964,8.012
0.968,8.004
0.972,7.952
0.976,7.936
0.98,8
0.984,7.996
0.988,7.952
0.992,7.936
0.996,8.004
1,8.04
1.004,7.992
1.008,7.964
1.012,7.976
1.016,8.012
1.02,7.972
1.024,7.944
1.028,8.004
1.032,8.036
1.036,8.02
1.04,7.956
1.044,8.028
1.048,8.056
1.052,8.056
1.056,7.948
1.06,8
1.064,8.1
1.068,8.1
1.072,8.048
1.076,8.048
1.08,8.14
1.084,8.14
1.088,8.092
1.092,8.064
1.096,8.14
1.1,8.212
1.104,8.172
1.108,8.164
1.112,8.232
1.116,8.28
1.12,8.26
1.124,8.2
1.128,8.304
1.132,8.372
1.136,8.348
1.14,8.308
1.144,8.364
1.148,8.456
1.152,8.46
1.156,8.408
1.16,8.44
1.164,8.496
1.168,8.508
1.172,8.484
1.176,8.456
1.18,8.496
1.184,8.472
1.188,8.404
1.192,8.376
1.196,8.396
1.2,8.368
1.204,8.252
1.208,8.196
1.212,8.208
1.216,8.224
1.22,8.112
1.224,8.024
1.228,8.028
1.232,8.068
1.236,8.004
1.24,7.94
1.244,7.936
1.248,8.004
1.252,7.952
1.256,7.912
1.26,7.936
1.264,7.98
1.268,7.96
1.272,7.912
1.276,7.892
1.28,7.936
1.284,7.96
1.288,7.888
1.292,7.876
1.296,7.948
1.3,7.976
1.304,7.936
1.308,7.9
1.312,7.924
1.316,7.96
1.32,7.912
1.324,7.888
1.328,7.912
1.332,7.952
1.336,7.952
1.34,7.896
1.344,7.956
1.348,7.988
1.352,7.968
1.356,7.892
1.36,7.904
1.364,7.964
1.368,7.98
1.372,7.928
1.376,7.924
1.38,7.972
1.384,7.976
1.388,7.956
1.392,7.92
1.396,7.968
1.4,7.972
1.404,7.92
1.408,7.892
1.412,7.968
1.416,8.016
1.42,7.936
1.424,7.904
1.428,7.928
1.432,7.992
1.436,7.916
1.44,7.88
1.444,7.912
1.448,7.992
1.452,7.944
1.456,7.892
1.46,7.916
1.464,7.972
1.468,7.952
1.472,7.92
1.476,7.924
1.48,7.956
1.484,7.968
1.488,7.916
1.492,7.912
1.496,7.972
1.5,7.972
1.504,7.92
1.508,7.912
1.512,7.948
1.516,7.988
1.52,7.948
1.524,7.896
1.528,7.912
1.532,7.964
1.536,7.944
1.54,7.876
1.544,7.908
1.548,7.968
1.552,7.932
1.556,7.908
1.56,7.916
1.564,7.944
1.568,7.936
1.572,7.884
1.576,7.852
1.58,7.928
1.584,7.924
1.588,7.892
1.592,7.848
1.596,7.904
1.6,7.94
1.604,7.904
1.608,7.86
1.612,7.9
1.616,7.932
1.62,7.88
1.624,7.844
1.628,7.896
1.632,7.96
1.636,7.916
1.64,7.848
1.644,7.88
1.648,7.948
1.652,7.916
1.656,7.88
1.66,7.888
1.664,7.94
1.668,7.92
1.672,7.864
1.676,7.872
1.68,7.948
1.684,7.94
1.688,7.924
1.692,7.952
1.696,8.012
1.7,8.056
1.704,8.028
1.708,8.04
1.712,8.14
1.716,8.164
1.72,8.104
1.724,8.06
1.728,8.088
1.732,8.168
1.736,8.108
1.74,8.036
1.744,8.068
1.748,8.096
1.752,8.108
1.756,8.028
1.76,7.936
1.764,7.936
1.768,7.948
1.772,7.888
1.776,7.9
1.78,7.928
1.784,7.928
1.788,7.868
1.792,7.864
1.796,7.892
1.8,7.924
1.804,7.872
1.808,7.824
1.812,7.872
1.816,7.912
1.82,7.876
1.824,7.764
1.828,7.764
1.832,7.78
1.836,7.68
1.84,7.96
1.844,8.712
1.848,9.684
1.852,10.612
1.856,10.876
1.86,10.336
1.864,9.968
1.868,9.644
1.872,9.076
1.876,8.584
1.88,8.268
1.884,8.132
1.888,8.056
1.892,8.016
1.896,8.044
1.9,7.98
1.904,7.928
1.908,7.848
1.912,7.896
1.916,7.892
1.92,7.848
1.924,7.82
1.928,7.856
1.932,7.88
1.936,7.848
1.94,7.796
1.944,7.816
1.948,7.904
1.952,7.872
1.956,7.816
1.96,7.82
1.964,7.876
1.968,7.86
1.972,7.816
1.976,7.836
1.98,7.884
1.984,7.892
1.988,7.824
1.992,7.816
1.996,7.888
2,7.904
2.004,7.84
2.008,7.828
2.012,7.884
2.016,7.94
2.02,7.864
2.024,7.856
2.028,7.888
2.032,7.94
2.036,7.936
2.04,7.904
2.044,7.924
2.048,7.956
2.052,7.956
2.056,7.904
2.06,7.916
2.064,8.008
2.068,7.988
2.072,7.964
2.076,7.996
2.08,8.08
2.084,8.096
2.088,8.056
2.092,8.024
2.096,8.104
2.1,8.16
2.104,8.128
2.108,8.148
2.112,8.204
2.116,8.268
2.12,8.244
2.124,8.228
2.128,8.296
2.132,8.364
2.136,8.332
2.14,8.328
2.144,8.392
2.148,8.476
2.152,8.448
2.156,8.42
2.16,8.408
2.164,8.48
2.168,8.46
2.172,8.368
2.176,8.34
2.18,8.364
2.184,8.352
2.188,8.28
2.192,8.212
2.196,8.228
2.2,8.208
2.204,8.116
2.208,8.048
2.212,8.06
2.216,8.044
2.22,7.98
2.224,7.916
2.228,7.944
2.232,7.976
2.236,7.944
2.24,7.868
2.244,7.884
2.248,7.94
2.252,7.936
2.256,7.88
2.26,7.88
2.264,7.944
2.268,7.912
2.272,7.856
2.276,7.88
2.28,7.944
2.284,7.944
2.288,7.876
2.292,7.896
2.296,7.96
2.3,7.964
2.304,7.888
2.308,7.852
2.312,7.896
2.316,7.972
2.32,7.924
2.324,7.832
2.328,7.92
2.332,7.952
2.336,7.916
2.34,7.86
2.344,7.908
2.348,7.936
2.352,7.908
2.356,7.848
2.36,7.912
2.364,7.968
2.368,7.936
2.372,7.884
2.376,7.872
2.38,7.964
2.384,7.952
2.388,7.916
2.392,7.876
2.396,7.944
2.4,7.94
2.404,7.904
2.408,7.876
2.412,7.928
2.416,7.944
2.42,7.92
2.424,7.876
2.428,7.936
2.432,7.96
2.436,7.908
2.44,7.872
2.444,7.904
2.448,7.984
2.452,7.936
2.456,7.88
2.46,7.9
2.464,7.968
2.468,7.952
2.472,7.892
2.476,7.896
2.48,7.956
2.484,7.948
2.488,7.9
2.492,7.892
2.496,7.928
2.5,7.96
2.504,7.916
2.508,7.896
2.512,7.924
2.516,7.984
2.52,7.9
2.524,7.884
2.528,7.94
2.532,7.98
2.536,7.952
2.54,7.892
2.544,7.908
2.548,7.984
2.552,7.932
2.556,7.908
2.56,7.928
2.564,7.984
2.568,7.948
2.572,7.88
2.576,7.924
2.58,7.984
2.584,7.968
2.588,7.92
2.592,7.884
2.596,7.956
2.6,7.984
2.604,7.924
2.608,7.884
2.612,7.964
2.616,7.984
2.62,7.948
2.624,7.912
2.628,7.92
2.632,7.968
2.636,7.952
2.64,7.908
2.644,7.92
2.648,7.992
2.652,7.972
2.656,7.92
2.66,7.92
2.664,8.028
2.668,8.008
2.672,7.988
2.676,8.016
2.68,8.084
2.684,8.076
2.688,8.044
2.692,8.064
2.696,8.152
2.7,8.168
2.704,8.124
2.708,8.116
2.712,8.152
2.716,8.18
2.72,8.112
2.724,8.08
2.728,8.132
2.732,8.168
2.736,8.108
2.74,8.024
2.744,8.012
2.748,8.036
2.752,8.012
2.756,7.94
2.76,7.948
2.764,8.012
2.768,7.972
2.772,7.912
2.776,7.928
2.78,7.98
2.784,7.968
2.788,7.9
2.792,7.912
2.796,7.964
2.8,7.972
2.804,7.908
2.808,7.824
2.812,7.836
2.816,7.856
2.82,7.76
2.824,8
2.828,8.652
2.832,9.576
2.836,10.5
2.84,10.88
2.844,10.4
2.848,9.98
2.852,9.664
2.856,9.12
2.86,8.688
2.864,8.336
2.868,8.184
2.872,8.064
2.876,8.068
2.88,8.12
2.884,8.064
2.888,7.964
2.892,7.932
2.896,7.952
2.9,7.972
2.904,7.944
2.908,7.92
2.912,7.932
2.916,7.964
2.92,7.948
2.924,7.904
2.928,7.944
2.932,7.964
2.936,7.944
2.94,7.9
2.944,7.828
2.948,8.02
2.952,7.98
2.956,7.932
2.96,7.952
2.964,8.02
2.968,8
2.972,7.96
2.976,7.94
2.98,8.008
2.984,8.016
2.988,7.98
2.992,7.984
2.996,8.036
3,8.044
3.004,7.992
3.008,7.98
3.012,8.044
3.016,8.068
3.02,8.004
3.024,7.976
3.028,8.06
3.032,8.112
3.036,8.064
3.04,8.028
3.044,8.084
3.048,8.16
3.052,8.144
3.056,8.104
3.06,8.12
3.064,8.2
3.068,8.212
3.072,8.196
3.076,8.228
3.08,8.288
3.084,8.308
3.088,8.272
3.092,8.288
3.096,8.352
3.1,8.412
3.104,8.388
3.108,8.368
3.112,8.44
3.116,8.504
3.12,8.492
3.124,8.464
3.128,8.524
3.132,8.6
3.136,8.6
3.14,8.568
3.144,8.608
3.148,8.648
3.152,8.608
3.156,8.56
3.16,8.556
3.164,8.568
3.168,8.496
3.172,8.42
3.176,8.4
3.18,8.404
3.184,8.364
3.188,8.26
3.192,8.208
3.196,8.228
3.2,8.196
3.204,8.136
3.208,8.08
3.212,8.128
3.216,8.136
3.22,8.036
3.224,8.016
3.228,8.036
3.232,8.096
3.236,8.012
3.24,7.976
3.244,7.996
3.248,8.06
3.252,8.012
3.256,7.952
3.26,7.96
3.264,8.04
3.268,8.032
3.272,7.98
3.276,7.984
3.28,8.02
3.284,8.012
3.288,7.964
3.292,7.968
3.296,8.016
3.3,8.016
3.304,7.96
3.308,7.968
3.312,7.996
3.316,8.028
3.32,7.988
3.324,7.936
3.328,7.98
3.332,8.04
3.336,8.016
3.34,7.952
3.344,7.964
3.348,8.028
3.352,8
3.356,7.96
3.36,7.988
3.364,8.028
3.368,8.016
3.372,7.964
3.376,7.984
3.38,8.04
3.384,7.992
3.388,7.948
3.392,7.96
3.396,8.02
3.4,8.052
3.404,7.984
3.408,7.948
3.412,7.988
3.416,8.032
3.42,7.956
3.424,7.956
3.428,8.008
3.432,8.036
3.436,7.976
3.44,7.972
3.444,8
3.448,8.032
3.452,7.996
3.456,7.932
3.46,7.96
3.464,8.052
3.468,7.996
3.472,7.968
3.476,7.944
3.48,8.016
3.484,8.032
3.488,7.972
3.492,7.964
3.496,8.004
3.5,8.036
3.504,7.984
3.508,7.96
3.512,8.012
3.516,8.016
3.52,7.96
3.524,7.936
3.528,7.996
3.532,8.06
3.536,7.984
3.54,7.924
3.544,7.972
3.548,8.024
3.552,7.988
3.556,7.96
3.56,7.968
3.564,8.016
3.568,7.976
3.572,7.96
3.576,7.968
3.58,8.012
3.584,8.024
3.588,7.936
3.592,7.968
3.596,8.04
3.6,8.044
3.604,7.988
3.608,7.992
3.612,8.044
3.616,8.092
3.62,8.04
3.624,8.008
3.628,8.1
3.632,8.144
3.636,8.132
3.64,8.064
3.644,8.144
3.648,8.224
3.652,8.216
3.656,8.16
3.66,8.22
3.664,8.264
3.668,8.24
3.672,8.176
3.676,8.188
3.68,8.2
3.684,8.216
3.688,8.14
3.692,8.136
3.696,8.132
3.7,8.104
3.704,8.028
3.708,7.98
3.712,8.016
3.716,8.04
3.72,7.996
3.724,7.968
3.728,8.008
3.732,8.016
3.736,7.964
3.74,7.96
3.744,7.964
3.748,8.052
3.752,7.948
3.756,7.924
3.76,7.952
3.764,7.968
3.768,7.88
3.772,7.836
3.776,7.764
3.78,7.944
3.784,8.516
3.788,9.264
3.792,10.14
3.796,10.836
3.8,10.452
3.804,9.884
3.808,9.636
3.812,9.276
3.816,8.804
3.82,8.344
3.824,8.12
3.828,8.132
3.832,8.208
3.836,8.124
3.84,8.072
3.844,8.072
3.848,8.08
3.852,8.032
3.856,7.964
3.86,8.004
3.864,8.032
3.868,8
3.872,7.988
3.876,8.004
3.88,8.04
3.884,8.016
3.888,7.976
3.892,7.976
3.896,8.032
3.9,8.036
3.904,7.96
3.908,7.98
3.912,8.028
3.916,8.052
3.92,8.012
3.924,7.98
3.928,8.008
3.932,8.056
3.936,8.036
3.94,8.02
3.944,8.052
3.948,8.076
3.952,8.072
3.956,8.02
3.96,8.036
3.964,8.116
3.968,8.092
3.972,8.056
3.976,8.052
3.98,8.116
3.984,8.136
3.988,8.096
3.992,8.088
3.996,8.152
4,8.176
4.004,8.12
4.008,8.136
4.012,8.172
4.016,8.24
4.02,8.18
4.024,8.188
4.028,8.252
4.032,8.296
4.036,8.256
4.04,8.256
4.044,8.32
4.048,8.388
4.052,8.38
4.056,8.348
4.06,8.4
4.064,8.464
4.068,8.444
4.072,8.436
4.076,8.472
4.08,8.524
4.084,8.556
4.088,8.512
4.092,8.556
4.096,8.608
4.1,8.632
4.104,8.572
4.108,8.544
4.112,8.592
4.116,8.564
4.12,8.48
4.124,8.404
4.128,8.396
4.132,8.4
4.136,8.348
4.14,8.252
4.144,8.26
4.148,8.236
4.152,8.172
4.156,8.088
4.16,8.092
4.164,8.084
4.168,8.08
4.172,8.028
4.176,8.028
4.18,8.068
4.184,8.052
4.188,8
4.192,7.98
4.196,8.048
4.2,8.02
4.204,7.988
4.208,7.956
4.212,8.04
4.216,8.044
4.22,8.02
4.224,7.984
4.228,8.012
4.232,8.072
4.236,8.024
4.24,7.988
4.244,8.008
4.248,8.076
4.252,8.036
4.256,7.996
4.26,8.012
4.264,8.064
4.268,8.04
4.272,7.992
4.276,8.012
4.28,8.052
4.284,8.076
4.288,8.028
4.292,8.032
4.296,8.036
4.3,8.06
4.304,8.02
4.308,8.024
4.312,8.036
4.316,8.116
4.32,8.04
4.324,8.02
4.328,8.056
4.332,8.088
4.336,8.016
4.34,7.972
4.344,8.056
4.348,8.084
4.352,8.068
4.356,8.016
4.36,8.032
4.364,8.092
4.368,8.076
4.372,8.024
4.376,8.044
4.38,8.076
4.384,8.048
4.388,8.024
4.392,7.996
4.396,8.084
4.4,8.08
4.404,8.012
4.408,7.984
4.412,8.052
4.416,8.032
4.42,8.02
4.424,7.984
4.428,8.052
4.432,8.06
4.436,8.056
4.44,7.98
4.444,8.032
4.448,8.08
4.452,8.028
4.456,7.992
4.46,8.008
4.464,8.064
4.468,8.044
4.472,7.996
4.476,8.008
4.48,8.068
4.484,8.04
4.488,7.984
4.492,7.976
4.496,8.024
4.5,8.04
4.504,7.996
4.508,7.96
4.512,8.024
4.516,8.012
4.52,7.972
4.524,7.976
4.528,8.008
4.532,8.044
4.536,7.992
4.54,7.944
4.544,8.008
4.548,8.064
4.552,8.012
4.556,7.968
4.56,8.016
4.564,8.052
4.568,8.036
4.572,8.004
4.576,8.004
4.58,8.084
4.584,8.068
4.588,8.008
4.592,8.028
4.596,8.064
4.6,8.088
4.604,8.032
4.608,8.028
4.612,8.06
4.616,8.092
4.62,8.036
4.624,8.008
4.628,8.048
4.632,8.064
4.636,8.052
4.64,8.012
4.644,8.068
4.648,8.104
4.652,8.068
4.656,8.044
4.66,8.088
4.664,8.164
4.668,8.144
4.672,8.136
4.676,8.172
4.68,8.26
4.684,8.252
4.688,8.224
4.692,8.212
4.696,8.252
4.7,8.268
4.704,8.228
4.708,8.16
4.712,8.232
4.716,8.22
4.72,8.212
4.724,8.152
4.728,8.156
4.732,8.12
4.736,8.036
4.74,8.008
4.744,8.048
4.748,8.072
4.752,8.024
4.756,7.988
4.76,8.008
4.764,8.08
4.768,8.032
4.772,7.984
4.776,7.96
4.78,8.052
4.784,8.04
4.788,7.992
4.792,7.944
4.796,7.94
4.8,7.932
4.804,7.8
4.808,8.004
4.812,8.704
4.816,9.624
4.82,10.512
4.824,11.104
4.828,10.692
4.832,10.208
4.836,9.852
4.84,9.38
4.844,8.892
4.848,8.52
4.852,8.24
4.856,8.192
4.86,8.176
4.864,8.248
4.868,8.208
4.872,8.084
4.876,8.072
4.88,8.084
4.884,8.08
4.888,8.02
4.892,8.004
4.896,8.068
4.9,8.072
4.904,8.028
4.908,8.012
4.912,8.056
4.916,8.092
4.92,8.036
4.924,7.996
4.928,8.04
4.932,8.092
4.936,8.032
4.94,8.004
4.944,8.032
4.948,8.06
4.952,8.032
4.956,8
4.96,8.036
4.964,8.06
4.968,8.052
4.972,8.024
4.976,8.048
4.98,8.084
4.984,8.08
4.988,8.024
4.992,8.02
4.996,8.096
5,8.124
5.004,8.08
5.008,8.076
5.012,8.132
5.016,8.176
5.02,8.132
5.024,8.104
5.028,8.16
5.032,8.216
5.036,8.176
5.04,8.172
5.044,8.208
5.048,8.284
5.052,8.244
5.056,8.216
5.06,8.276
5.064,8.356
5.068,8.352
5.072,8.316
5.076,8.336
5.08,8.396
5.084,8.44
5.088,8.412
5.092,8.412
5.096,8.492
5.1,8.54
5.104,8.492
5.108,8.492
5.112,8.552
5.116,8.608
5.12,8.588
5.124,8.552
5.128,8.644
5.132,8.692
5.136,8.648
5.14,8.56
5.144,8.568
5.148,8.604
5.152,8.524
5.156,8.416
5.16,8.428
5.164,8.424
5.168,8.376
5.172,8.292
5.176,8.24
5.18,8.276
5.184,8.224
5.188,8.128
5.192,8.132
5.196,8.152
5.2,8.132
5.204,8.064
5.208,8.064
5.212,8.116
5.216,8.116
5.22,8.068
5.224,8.012
5.228,8.076
5.232,8.08
5.236,8.072
5.24,7.988
5.244,8.044
5.248,8.1
5.252,8.076
5.256,8.02
5.26,8.032
5.264,8.092
5.268,8.048
5.272,8.004
5.276,8.008
5.28,8.104
5.284,8.108
5.288,8.032
5.292,8.012
5.296,8.052
5.3,8.108
5.304,8.032
5.308,8.02
5.312,8.052
5.316,8.064
5.32,8.028
5.324,8.004
5.328,8.004
5.332,8.076
5.336,7.996
5.34,7.972
5.344,8.024
5.348,8.08
5.352,8.028
5.356,7.976
5.36,7.988
5.364,8.044
5.368,8.008
5.372,7.944
5.376,7.964
5.38,8.012
5.384,8.012
5.388,7.964
5.392,7.96
5.396,8.024
5.4,7.996
5.404,7.936
5.408,7.92
5.412,7.996
5.416,7.992
5.42,7.952
5.424,7.916
5.428,7.984
5.432,8.024
5.436,7.976
5.44,7.912
5.444,7.92
5.448,7.976
5.452,7.944
5.456,7.896
5.46,7.94
5.464,7.996
5.468,7.996
5.472,7.924
5.476,7.928
5.48,8.004
5.484,7.968
5.488,7.936
5.492,7.912
5.496,7.984
5.5,8
5.504,7.952
5.508,7.9
5.512,7.96
5.516,8
5.52,7.964
5.524,7.92
5.528,7.944
5.532,8
5.536,7.956
5.54,7.944
5.544,7.968
5.548,8.028
5.552,7.948
5.556,7.92
5.56,7.936
5.564,7.988
5.568,7.98
5.572,7.912
5.576,7.924
5.58,8.004
5.584,7.988
5.588,7.932
5.592,7.928
5.596,7.956
5.6,7.996
5.604,7.952
5.608,7.948
5.612,7.976
5.616,8.004
5.62,7.936
5.624,7.904
5.628,7.952
5.632,8
5.636,7.952
5.64,7.916
5.644,7.94
5.648,8.02
5.652,7.996
5.656,7.924
5.66,7.972
5.664,8.068
5.668,8.064
5.672,8.02
5.676,8.048
5.68,8.12
5.684,8.124
5.688,8.128
5.692,8.104
5.696,8.164
5.7,8.156
5.704,8.128
5.708,8.088
5.712,8.148
5.716,8.16
5.72,8.084
5.724,8.052
5.728,8.1
5.732,8.108
5.736,8.012
5.74,7.916
5.744,7.96
5.748,8.008
5.752,7.932
5.756,7.9
5.76,7.908
5.764,7.96
5.768,7.92
5.772,7.888
5.776,7.888
5.78,7.96
5.784,7.948
5.788,7.908
5.792,7.872
5.796,7.928
5.8,7.88
5.804,7.8
5.808,7.688
5.812,7.784
5.816,8.232
5.82,8.968
5.824,9.868
5.828,10.848
5.832,10.888
5.836,10.272
5.84,9.808
5.844,9.492
5.848,9.004
5.852,8.52
5.856,8.156
5.86,8.108
5.864,8.168
5.868,8.132
5.872,8.064
5.876,7.992
5.88,8.056
5.884,8.008
5.888,7.936
5.892,7.92
5.896,7.964
5.9,8.016
5.904,7.936
5.908,7.924
5.912,7.98
5.916,8.028
5.92,7.96
5.924,7.916
5.928,7.96
5.932,8.024
5.936,7.972
5.94,7.94
5.944,7.964
5.948,8.02
5.952,8.008
5.956,7.924
5.96,7.956
5.964,8.012
5.968,8.008
5.972,7.98
5.976,7.984
5.98,8.04
5.984,8.032
5.988,7.96
5.992,8.008
5.996,8.052
6,8.048
6.004,8.008
6.008,8.012
6.012,8.048
6.016,8.076
6.02,8.052
6.024,8.036
6.028,8.056
6.032,8.12
6.036,8.096
6.04,8.08
6.044,8.108
6.048,8.18
6.052,8.14
6.056,8.108
6.06,8.172
6.064,8.232
6.068,8.228
6.072,8.192
6.076,8.228
6.08,8.316
6.084,8.324
6.088,8.32
6.092,8.328
6.096,8.396
6.1,8.44
6.104,8.432
6.108,8.408
6.112,8.456
6.116,8.54
6.12,8.52
6.124,8.524
6.128,8.556
6.132,8.604
6.136,8.552
6.14,8.528
6.144,8.564
6.148,8.568
6.152,8.496
6.156,8.428
6.16,8.404
6.164,8.44
6.168,8.384
6.172,8.272
6.176,8.248
6.18,8.252
6.184,8.216
6.188,8.144
6.192,8.096
6.196,8.14
6.2,8.128
6.204,8.068
6.208,8.036
6.212,8.06
6.216,8.08
6.22,8.028
6.224,7.98
6.228,8.036
6.232,8.072
6.236,8.056
6.24,7.976
6.244,8.032
6.248,8.068
6.252,8.04
6.256,8.016
6.26,8.02
6.264,8.084
6.268,8.068
6.272,8.016
6.276,8.036
6.28,8.092
6.284,8.076
6.288,8.032
6.292,8.036
6.296,8.084
6.3,8.092
6.304,8.04
6.308,8.02
6.312,8.08
6.316,8.116
6.32,8.044
6.324,8.032
6.328,8.084
6.332,8.12
6.336,8.076
6.34,8.036
6.344,8.096
6.348,8.164
6.352,8.108
6.356,8.048
6.36,8.06
6.364,8.144
6.368,8.104
6.372,8.048
6.376,8.052
6.38,8.128
6.384,8.128
6.388,8.064
6.392,8.072
6.396,8.108
6.4,8.112
6.404,8.072
6.408,8.064
6.412,8.104
6.416,8.112
6.42,8.092
6.424,8.068
6.428,8.092
6.432,8.132
6.436,8.096
6.44,8.04
6.444,8.08
6.448,8.128
6.452,8.104
6.456,8.06
6.46,8.072
6.464,8.124
6.468,8.108
6.472,8.04
6.476,8.044
6.48,8.132
6.484,8.1
6.488,8.06
6.492,8.032
6.496,8.112
6.5,8.092
6.504,8.06
6.508,8.028
6.512,8.092
6.516,8.108
6.52,8.068
6.524,8.012
6.528,8.04
6.532,8.112
6.536,8.072
6.54,8.012
6.544,8.024
6.548,8.1
6.552,8.064
6.556,8.028
6.56,8.04
6.564,8.068
6.568,8.068
6.572,8.016
6.576,8.028
6.58,8.104
6.584,8.068
6.588,8.004
6.592,7.992
6.596,8.052
6.6,8.052
6.604,8.016
6.608,8.004
6.612,8.008
6.616,8.064
6.62,8.016
6.624,7.98
6.628,8.04
6.632,8.064
6.636,8.032
6.64,7.984
6.644,8.024
6.648,8.08
6.652,8.032
6.656,7.996
6.66,8.024
6.664,8.088
6.668,8.064
6.672,8.036
6.676,8.048
6.68,8.136
6.684,8.176
6.688,8.132
6.692,8.128
6.696,8.216
6.7,8.212
6.704,8.192
6.708,8.192
6.712,8.22
6.716,8.252
6.72,8.192
6.724,8.164
6.728,8.216
6.732,8.216
6.736,8.168
6.74,8.136
6.744,8.148
6.748,8.152
6.752,8.06
6.756,8.012
6.76,8.016
6.764,8.096
6.768,8.04
6.772,7.988
6.776,8
6.78,8.048
6.784,8.036
6.788,7.98
6.792,7.976
6.796,8.064
6.8,8.072
6.804,8.008
6.808,7.984
6.812,8.028
6.816,7.996
6.82,7.932
6.824,7.836
6.828,7.904
6.832,8.44
6.836,9.124
6.84,10.012
6.844,10.888
6.848,10.828
6.852,10.228
6.856,9.816
6.86,9.472
6.864,9.024
6.868,8.576
6.872,8.244
6.876,8.188
6.88,8.204
6.884,8.216
6.888,8.148
6.892,8.072
6.896,8.116
6.9,8.112
6.904,8.056
6.908,8.028
6.912,8.072
6.916,8.116
6.92,8.06
6.924,8.032
6.928,8.024
6.932,8.092
6.936,8.036
6.94,7.976
6.944,8.052
6.948,8.1
6.952,8.064
6.956,7.996
6.96,8.04
6.964,8.104
6.968,8.112
6.972,8.052
6.976,8.052
6.98,8.112
6.984,8.088
6.988,8.052
6.992,8.068
6.996,8.112
7,8.124
7.004,8.076
7.008,8.044
7.012,8.096
7.016,8.132
7.02,8.08
7.024,8.04
7.028,8.096
7.032,8.156
7.036,8.1
7.04,8.072
7.044,8.128
7.048,8.184
7.052,8.144
7.056,8.1
7.06,8.136
7.064,8.204
7.068,8.2
7.072,8.148
7.076,8.18
7.08,8.256
7.084,8.24
7.088,8.232
7.092,8.252
7.096,8.32
7.1,8.352
7.104,8.32
7.108,8.316
7.112,8.396
7.116,8.456
7.12,8.428
7.124,8.392
7.128,8.452
7.132,8.504
7.136,8.48
7.14,8.444
7.144,8.512
7.148,8.584
7.152,8.536
7.156,8.512
7.16,8.496
7.164,8.528
7.168,8.488
7.172,8.388
7.176,8.372
7.18,8.348
7.184,8.308
7.188,8.232
7.192,8.196
7.196,8.204
7.2,8.188
7.204,8.12
7.208,8.088
7.212,8.072
7.216,8.076
7.22,8.004
7.224,7.972
7.228,8.012
7.232,8.024
7.236,7.996
7.24,7.96
7.244,8.008
7.248,8.028
7.252,8.012
7.256,7.912
7.26,7.952
7.264,8.024
7.268,7.996
7.272,7.976
7.276,8.004
7.28,8.052
7.284,8.048
7.288,7.98
7.292,7.976
7.296,8.016
7.3,8.008
7.304,7.984
7.308,8
7.312,8.04
7.316,8.072
7.32,8.02
7.324,8.004
7.328,8.052
7.332,8.112
7.336,8.06
7.34,8.012
7.344,8.048
7.348,8.096
7.352,8.056
7.356,8.02
7.36,8.048
7.364,8.104
7.368,8.064
7.372,8.004
7.376,8.028
7.38,8.084
7.384,8.052
7.388,7.952
7.392,7.992
7.396,8.064
7.4,8.1
7.404,8.004
7.408,7.992
7.412,8.028
7.416,8.092
7.42,8.04
7.424,7.992
7.428,8.024
7.432,8.012
7.436,7.98
7.44,7.928
7.444,7.956
7.448,8.04
7.452,7.968
7.456,7.952
7.46,8
7.464,8.044
7.468,8.02
7.472,7.972
7.476,7.96
7.48,8.012
7.484,8.02
7.488,7.964
7.492,7.94
7.496,7.984
7.5,8.016
7.504,7.972
7.508,7.964
7.512,8.012
7.516,8.032
7.52,7.964
7.524,7.916
7.528,7.996
7.532,8.024
7.536,7.968
7.54,7.932
7.544,7.98
7.548,8.032
7.552,8.004
7.556,7.96
7.56,7.956
7.564,8.012
7.568,7.988
7.572,7.944
7.576,7.964
7.58,7.996
7.584,7.992
7.588,7.944
7.592,7.932
7.596,7.996
7.6,8.004
7.604,7.952
7.608,7.932
7.612,7.968
7.616,8.004
7.62,7.944
7.624,7.916
7.628,7.952
7.632,8.016
7.636,7.952
7.64,7.924
7.644,7.96
7.648,8.012
7.652,7.972
7.656,7.944
7.66,7.98
7.664,8.064
7.668,8.056
7.672,8.008
7.676,8.04
7.68,8.132
7.684,8.144
7.688,8.092
7.692,8.108
7.696,8.18
7.7,8.188
7.704,8.144
7.708,8.088
7.712,8.132
7.716,8.144
7.72,8.12
7.724,8.088
7.728,8.132
7.732,8.116
7.736,7.98
7.74,7.912
7.744,7.96
7.748,8.008
7.752,7.952
7.756,7.892
7.76,7.904
7.764,7.98
7.768,7.948
7.772,7.908
7.776,7.9
7.78,7.94
7.784,7.94
7.788,7.916
7.792,7.928
7.796,7.944
7.8,7.88
7.804,7.816
7.808,7.74
7.812,7.9
7.816,8.496
7.82,9.272
7.824,10.168
7.828,11.036
7.832,10.804
7.836,10.192
7.84,9.78
7.844,9.44
7.848,8.936
7.852,8.46
7.856,8.14
7.86,8.12
7.864,8.188
7.868,8.148
7.872,8.076
7.876,8.076
7.88,8.092
7.884,8.044
7.888,7.972
7.892,7.968
7.896,8.008
7.9,8.04
7.904,8
7.908,7.972
7.912,8
7.916,8.044
7.92,7.992
7.924,7.948
7.928,8.004
7.932,8.04
7.936,8
7.94,7.972
7.944,8.012
7.948,8.048
7.952,8.012
7.956,7.952
7.96,7.996
7.964,8.044
7.968,8.036
7.972,7.98
7.976,8.012
7.98,8.064
7.984,8.072
7.988,8.028
7.992,8.04
7.996,8.096
8,8.108
8.004,8.096
8.008,8.064
8.012,8.132
8.016,8.144
8.02,8.108
8.024,8.084
8.028,8.164
8.032,8.196
8.036,8.18
8.04,8.136
8.044,8.172
8.048,8.26
8.052,8.24
8.056,8.196
8.06,8.228
8.064,8.308
8.068,8.288
8.072,8.292
8.076,8.316
8.08,8.392
8.084,8.408
8.088,8.372
8.092,8.396
8.096,8.46
8.1,8.496
8.104,8.452
8.108,8.492
8.112,8.548
8.116,8.612
8.12,8.572
8.124,8.568
8.128,8.616
8.132,8.66
8.136,8.636
8.14,8.576
8.144,8.592
8.148,8.632
8.152,8.56
8.156,8.476
8.16,8.46
8.164,8.464
8.168,8.388
8.172,8.296
8.176,8.272
8.18,8.304
8.184,8.264
8.188,8.16
8.192,8.104
8.196,8.14
8.2,8.16
8.204,8.084
8.208,8.032
8.212,8.08
8.216,8.104
8.22,8.068
8.224,8.028
8.228,8.068
8.232,8.108
8.236,8.04
8.24,8.02
8.244,8.052
8.248,8.112
8.252,8.076
8.256,8.032
8.26,8.052
8.264,8.116
8.268,8.092
8.272,8.028
8.276,8.052
8.28,8.108
8.284,8.104
8.288,8.068
8.292,8.032
8.296,8.12
8.3,8.124
8.304,8.08
8.308,8.048
8.312,8.092
8.316,8.144
8.32,8.064
8.324,8.024
8.328,8.092
8.332,8.132
8.336,8.092
8.34,8.048
8.344,8.096
8.348,8.136
8.352,8.092
8.356,8.04
8.36,8.048
8.364,8.108
8.368,8.104
8.372,8.064
8.376,8.048
8.38,8.108
8.384,8.084
8.388,8.04
8.392,8.016
8.396,8.1
8.4,8.092
8.404,8.04
8.408,8.004
8.412,8.06
8.416,8.104
8.42,8.064
8.424,8.024
8.428,8.036
8.432,8.116
8.436,8.064
8.44,8.02
8.444,8.044
8.448,8.12
8.452,8.04
8.456,8.016
8.46,8.044
8.464,8.116
8.468,8.08
8.472,8.004
8.476,8.024
8.48,8.072
8.484,8.088
8.488,8
8.492,8.028
8.496,8.08
8.5,8.076
8.504,8.056
8.508,8.004
8.512,8.064
8.516,8.08
8.52,8.032
8.524,8.02
8.528,8.068
8.532,8.084
8.536,8.032
8.54,7.996
8.544,8.052
8.548,8.088
8.552,8.036
8.556,8.02
8.56,8.036
8.564,8.108
8.568,8.076
8.572,8.032
8.576,8.024
8.58,8.092
8.584,8.072
8.588,8.02
8.592,8.036
8.596,8.092
8.6,8.08
8.604,8.044
8.608,8.028
8.612,8.084
8.616,8.1
8.62,8.06
8.624,8.004
8.628,8.072
8.632,8.108
8.636,8.076
8.64,8
8.644,8.036
8.648,8.084
8.652,8.076
8.656,8.02
8.66,8.024
8.664,8.088
8.668,8.04
8.672,8
8.676,8.052
8.68,8.128
8.684,8.1
8.688,8.06
8.692,8.096
8.696,8.168
8.7,8.196
8.704,8.16
8.708,8.16
8.712,8.232
8.716,8.276
8.72,8.244
8.724,8.216
8.728,8.252
8.732,8.292
8.736,8.204
8.74,8.172
8.744,8.212
8.748,8.256
8.752,8.212
8.756,8.168
8.76,8.152
8.764,8.164
8.768,8.092
8.772,8.04
8.776,8.036
8.78,8.084
8.784,8.056
8.788,8.008
8.792,8.012
8.796,8.084
8.8,8.08
8.804,8.04
8.808,7.996
8.812,8.068
8.816,8.088
8.82,8.04
8.824,7.968
8.828,7.972
8.832,7.988
8.836,7.868
8.84,7.956
8.844,8.552
8.848,9.42
8.852,10.372
8.856,11.096
8.86,10.772
8.864,10.248
8.868,9.872
8.872,9.404
8.876,8.916
8.88,8.516
8.884,8.292
8.888,8.216
8.892,8.204
8.896,8.24
8.9,8.22
8.904,8.128
8.908,8.084
8.912,8.128
8.916,8.132
8.92,8.064
8.924,8.04
8.928,8.084
8.932,8.116
8.936,8.076
8.94,8.028
8.944,8.072
8.948,8.116
8.952,8.052
8.956,8.044
8.96,8.072
8.964,8.092
8.968,8.068
8.972,8.02
8.976,8.052
8.98,8.108
8.984,8.116
8.988,8.064
8.992,8.04
8.996,8.12
9,8.116
9.004,8.088
9.008,8.064
9.012,8.144
9.016,8.132
9.02,8.112
9.024,8.08
9.028,8.128
9.032,8.172
9.036,8.128
9.04,8.088
9.044,8.16
9.048,8.224
9.052,8.192
9.056,8.16
9.06,8.144
9.064,8.236
9.068,8.236
9.072,8.192
9.076,8.212
9.08,8.284
9.084,8.268
9.088,8.244
9.092,8.264
9.096,8.32
9.1,8.348
9.104,8.348
9.108,8.324
9.112,8.404
9.116,8.468
9.12,8.452
9.124,8.392
9.128,8.464
9.132,8.556
9.136,8.532
9.14,8.528
9.144,8.556
9.148,8.644
9.152,8.608
9.156,8.568
9.16,8.596
9.164,8.672
9.168,8.624
9.172,8.58
9.176,8.584
9.18,8.584
9.184,8.536
9.188,8.42
9.192,8.424
9.196,8.448
9.2,8.412
9.204,8.3
9.208,8.24
9.212,8.244
9.216,8.252
9.22,8.156
9.224,8.104
9.228,8.12
9.232,8.144
9.236,8.108
9.24,8.036
9.244,8.06
9.248,8.092
9.252,8.048
9.256,8.012
9.26,8.044
9.264,8.108
9.268,8.06
9.272,7.988
9.276,8.032
9.28,8.068
9.284,8.088
9.288,8.036
9.292,8.02
9.296,8.076
9.3,8.032
9.304,8.016
9.308,8
9.312,8.056
9.316,8.108
9.32,8.084
9.324,8.044
9.328,8.084
9.332,8.144
9.336,8.088
9.34,8.036
9.344,8.072
9.348,8.136
9.352,8.108
9.356,8.06
9.36,8.06
9.364,8.096
9.368,8.064
9.372,8.044
9.376,8.036
9.38,8.1
9.384,8.072
9.388,8.04
9.392,8.024
9.396,8.092
9.4,8.076
9.404,8.036
9.408,8.012
9.412,8.096
9.416,8.088
9.42,8.028
9.424,8.016
9.428,8.052
9.432,8.104
9.436,8.028
9.44,7.988
9.444,7.964
9.448,8.028
9.452,7.992
9.456,7.948
9.46,8
9.464,8.04
9.468,8.004
9.472,7.932
9.476,7.996
9.48,8.06
9.484,8.052
9.488,7.952
9.492,7.956
9.496,8.036
9.5,8.064
9.504,8.008
9.508,8.024
9.512,8.06
9.516,8.064
9.52,7.984
9.524,7.928
9.528,7.976
9.532,8.028
9.536,8
9.54,7.924
9.544,7.992
9.548,8.044
9.552,8.004
9.556,7.956
9.56,7.996
9.564,8.052
9.568,8.012
9.572,7.94
9.576,7.96
9.58,8.04
9.584,8.016
9.588,7.988
9.592,8
9.596,8.04
9.6,8.048
9.604,7.996
9.608,7.984
9.612,8.032
9.616,8.044
9.62,7.98
9.624,7.932
9.628,8.012
9.632,8.06
9.636,7.992
9.64,7.956
9.644,7.96
9.648,8.02
9.652,7.976
9.656,7.968
9.66,7.98
9.664,8.028
9.668,7.988
9.672,7.972
9.676,8.004
9.68,8.044
9.684,8.024
9.688,7.96
9.692,8
9.696,8.064
9.7,8.076
9.704,8.044
9.708,8.064
9.712,8.1
9.716,8.108
9.72,8.08
9.724,8.088
9.728,8.156
9.732,8.196
9.736,8.12
9.74,8.132
9.744,8.16
9.748,8.188
9.752,8.12
9.756,8.052
9.76,8.12
9.764,8.176
9.768,8.08
9.772,7.884
9.776,7.904
9.78,8
9.784,7.992
9.788,7.908
9.792,7.884
9.796,7.924
9.8,7.98
9.804,7.884
9.808,7.856
9.812,7.92
9.816,7.932
9.82,7.912
9.824,7.832
9.828,7.88
9.832,7.876
9.836,7.78
9.84,7.708
9.844,7.708
9.848,7.976
9.852,8.572
9.856,9.444
9.86,10.448
9.864,11.192
9.868,10.708
9.872,9.964
9.876,9.548
9.88,9.1
9.884,8.548
9.888,8.152
9.892,7.888
9.896,7.968
9.9,8.016
9.904,7.976
9.908,7.972
9.912,8.016
9.916,8.008
9.92,7.884
9.924,7.84
9.928,7.904
9.932,7.936
9.936,7.868
9.94,7.844
9.944,7.88
9.948,7.92
9.952,7.872
9.956,7.82
9.96,7.864
9.964,7.912
9.968,7.916
9.972,7.856
9.976,7.876
9.98,7.908
9.984,7.892
9.988,7.84
9.992,7.856
9.996,7.924
10,7.96
10.004,7.876
10.008,7.872
10.012,7.928
10.016,7.976
10.02,7.928
10.024,7.916
10.028,7.948
10.032,7.984
10.036,7.908
10.04,7.928
10.044,8.02
10.048,8.04
10.052,8
10.056,7.916
10.06,7.928
10.064,8
10.068,7.984
10.072,7.932
10.076,7.988
10.08,8.076
10.084,8.052
10.088,8.004
10.092,8.008
10.096,8.096
10.1,8.1
10.104,8.072
10.108,8.06
10.112,8.132
10.116,8.22
10.12,8.164
10.124,8.164
10.128,8.232
10.132,8.284
10.136,8.228
10.14,8.212
10.144,8.28
10.148,8.372
10.152,8.36
10.156,8.312
10.16,8.376
10.164,8.44
10.168,8.436
10.172,8.372
10.176,8.376
10.18,8.44
10.184,8.376
10.188,8.288
10.192,8.268
10.196,8.288
10.2,8.212
10.204,8.116
10.208,8.064
10.212,8.08
10.216,8.076
10.22,7.984
10.224,7.924
10.228,7.936
10.232,7.932
10.236,7.864
10.24,7.808
10.244,7.824
10.248,7.832
10.252,7.792
10.256,7.748
10.26,7.768
10.264,7.828
10.268,7.788
10.272,7.724
10.276,7.76
10.28,7.792
10.284,7.776
10.288,7.732
10.292,7.74
10.296,7.764
10.3,7.8
10.304,7.732
10.308,7.744
10.312,7.788
10.316,7.788
10.32,7.768
10.324,7.756
10.328,7.796
10.332,7.824
10.336,7.796
10.34,7.784
10.344,7.832
10.348,7.828
10.352,7.832
10.356,7.776
10.36,7.836
10.364,7.868
10.368,7.844
10.372,7.812
10.376,7.824
10.38,7.9
10.384,7.888
10.388,7.812
10.392,7.816
10.396,7.856
10.4,7.844
10.404,7.8
10.408,7.804
10.412,7.848
10.416,7.86
10.42,7.808
10.424,7.768
10.428,7.812
10.432,7.868
10.436,7.808
10.44,7.78
10.444,7.824
10.448,7.856
10.452,7.812
10.456,7.776
10.46,7.808
10.464,7.852
10.468,7.82
10.472,7.764
10.476,7.788
10.48,7.816
10.484,7.808
10.488,7.792
10.492,7.788
10.496,7.856
10.5,7.844
10.504,7.772
10.508,7.76
10.512,7.824
10.516,7.86
10.52,7.82
10.524,7.768
10.528,7.84
10.532,7.856
10.536,7.8
10.54,7.784
10.544,7.824
10.548,7.856
10.552,7.808
10.556,7.764
10.56,7.796
10.564,7.868
10.568,7.84
10.572,7.772
10.576,7.832
10.58,7.884
10.584,7.86
10.588,7.78
10.592,7.784
10.596,7.848
10.6,7.888
10.604,7.84
10.608,7.804
10.612,7.828
10.616,7.852
10.62,7.824
10.624,7.816
10.628,7.836
10.632,7.868
10.636,7.824
10.64,7.808
10.644,7.904
10.648,7.94
10.652,7.92
10.656,7.932
10.66,7.944
10.664,8.028
10.668,8.008
10.672,7.964
10.676,8.016
10.68,8.064
10.684,8.072
10.688,8.008
10.692,8.02
10.696,8.048
10.7,8.02
10.704,8.008
10.708,7.996
10.712,7.968
10.716,7.888
10.72,7.812
10.724,7.812
10.728,7.832
10.732,7.86
10.736,7.804
10.74,7.772
10.744,7.808
10.748,7.856
10.752,7.804
10.756,7.748
10.76,7.8
10.764,7.852
10.768,7.832
10.772,7.744
10.776,7.72
10.78,7.728
10.784,7.708
10.788,7.592
10.792,7.88
10.796,8.66
10.8,9.608
10.804,10.612
10.808,11.2
10.812,10.692
10.816,10.076
10.82,9.58
10.824,8.948
10.828,8.496
10.832,8.124
10.836,7.968
10.84,7.944
10.844,7.988
10.848,8.076
10.852,7.976
10.856,7.904
10.86,7.9
10.864,7.94
10.868,7.896
10.872,7.856
10.876,7.88
10.88,7.94
10.884,7.944
10.888,7.868
10.892,7.868
10.896,7.932
10.9,7.916
10.904,7.892
10.908,7.88
10.912,7.936
10.916,7.956
10.92,7.928
10.924,7.88
10.928,7.928
10.932,7.952
10.936,7.916
10.94,7.896
10.944,7.952
10.948,8.004
10.952,7.956
10.956,7.9
10.96,7.928
10.964,7.992
10.968,7.968
10.972,7.932
10.976,7.944
10.98,8.016
10.984,8.004
10.988,7.948
10.992,7.988
10.996,8.06
11,8.044
11.004,7.996
11.008,8.016
11.012,8.048
11.016,8.092
11.02,8.064
11.024,8.036
11.028,8.108
11.032,8.148
11.036,8.136
11.04,8.108
11.044,8.144
11.048,8.224
11.052,8.204
11.056,8.18
11.06,8.272
11.064,8.332
11.068,8.308
11.072,8.292
11.076,8.364
11.08,8.428
11.084,8.412
11.088,8.388
11.092,8.42
11.096,8.496
11.1,8.524
11.104,8.48
11.108,8.464
11.112,8.532
11.116,8.552
11.12,8.488
11.124,8.456
11.128,8.464
11.132,8.456
11.136,8.372
11.14,8.276
11.144,8.276
11.148,8.284
11.152,8.168
11.156,8.084
11.16,8.068
11.164,8.088
11.168,8.004
11.172,7.932
11.176,7.94
11.18,7.988
11.184,7.952
11.188,7.912
11.192,7.868
11.196,7.94
11.2,7.932
11.204,7.852
11.208,7.836
11.212,7.88
11.216,7.912
11.22,7.844
11.224,7.832
11.228,7.868
11.232,7.908
11.236,7.848
11.24,7.832
11.244,7.852
11.248,7.928
11.252,7.888
11.256,7.868
11.26,7.9
11.264,7.916
11.268,7.916
11.272,7.828
11.276,7.896
11.28,7.932
11.284,7.936
11.288,7.868
11.292,7.88
11.296,7.936
11.3,7.928
11.304,7.864
11.308,7.868
11.312,7.92
11.316,7.96
11.32,7.92
11.324,7.86
11.328,7.916
11.332,7.912
11.336,7.856
11.34,7.848
11.344,7.896
11.348,7.904
11.352,7.88
11.356,7.808
11.36,7.876
11.364,7.952
11.368,7.864
11.372,7.828
11.376,7.844
11.38,7.916
11.384,7.9
11.388,7.816
11.392,7.832
11.396,7.88
11.4,7.896
11.404,7.844
11.408,7.848
11.412,7.892
11.416,7.88
11.42,7.872
11.424,7.856
11.428,7.924
11.432,7.884
11.436,7.868
11.44,7.852
11.444,7.9
11.448,7.936
11.452,7.9
11.456,7.86
11.46,7.88
11.464,7.956
11.468,7.904
11.472,7.88
11.476,7.892
11.48,7.924
11.484,7.916
11.488,7.868
11.492,7.912
11.496,7.948
11.5,7.924
11.504,7.912
11.508,7.884
11.512,7.94
11.516,7.944
11.52,7.9
11.524,7.896
11.528,7.916
11.532,7.948
11.536,7.904
11.54,7.888
11.544,7.9
11.548,7.944
11.552,7.932
11.556,7.884
11.56,7.924
11.564,7.964
11.568,7.94
11.572,7.852
11.576,7.928
11.58,7.96
11.584,7.952
11.588,7.916
11.592,7.98
11.596,8.048
11.6,8.056
11.604,8.024
11.608,8.044
11.612,8.108
11.616,8.144
11.62,8.12
11.624,8.116
11.628,8.156
11.632,8.16
11.636,8.136
11.64,8.136
11.644,8.16
11.648,8.176
11.652,8.104
11.656,8.084
11.66,8.096
11.664,8.084
11.668,7.976
11.672,7.952
11.676,7.968
11.68,8.004
11.684,7.956
11.688,7.916
11.692,7.892
11.696,7.972
11.7,7.956
11.704,7.908
11.708,7.896
11.712,7.96
11.716,7.956
11.72,7.916
11.724,7.904
11.728,7.892
11.732,7.864
11.736,7.788
11.74,7.688
11.744,8.12
11.748,8.908
11.752,9.84
11.756,10.748
11.76,11.084
11.764,10.492
11.768,9.94
11.772,9.52
11.776,8.988
11.78,8.476
11.784,8.152
11.788,8.04
11.792,8.06
11.796,8.136
11.8,8.128
11.804,8.032
11.808,8.008
11.812,8.036
11.816,8.028
11.82,7.968
11.824,7.94
11.828,8.004
11.832,7.992
11.836,7.968
11.84,7.952
11.844,7.98
11.848,8.004
11.852,7.956
11.856,7.944
11.86,7.992
11.864,8.044
11.868,7.988
11.872,7.944
11.876,7.996
11.88,8.04
11.884,8.016
11.888,7.964
11.892,7.968
11.896,8.052
11.9,8.04
11.904,8.004
11.908,8
11.912,8.032
11.916,8.064
11.92,8.032
11.924,8.024
11.928,8.056
11.932,8.084
11.936,8.056
11.94,8.044
11.944,8.076
11.948,8.132
11.952,8.092
11.956,8.052
11.96,8.104
11.964,8.156
11.968,8.144
11.972,8.112
11.976,8.156
11.98,8.216
11.984,8.2
11.988,8.184
11.992,8.22
11.996,8.256
12,8.268
12.004,8.256
12.008,8.284
12.012,8.376
12.016,8.396
12.02,8.356
12.024,8.388
12.028,8.472
12.032,8.504
12.036,8.476
12.04,8.476
12.044,8.516
12.048,8.6
12.052,8.564
12.056,8.564
12.06,8.584
12.064,8.64
12.068,8.596
12.072,8.528
12.076,8.544
12.08,8.576
12.084,8.516
12.088,8.408
12.092,8.4
12.096,8.428
12.1,8.356
12.104,8.236
12.108,8.212
12.112,8.22
12.116,8.212
12.12,8.128
12.124,8.084
12.128,8.1
12.132,8.124
12.136,8.048
12.14,8.032
12.144,8.048
12.148,8.08
12.152,8.016
12.156,8.016
12.16,8.056
12.164,8.052
12.168,8.024
12.172,7.988
12.176,8.004
12.18,8.068
12.184,8.032
12.188,7.96
12.192,7.98
12.196,8.056
12.2,8.012
12.204,7.988
12.208,7.984
12.212,8.04
12.216,8.036
12.22,8.008
12.224,7.996
12.228,8.064
12.232,8.04
12.236,8.008
12.24,7.976
12.244,8.02
12.248,8.056
12.252,8.008
12.256,7.976
12.26,8.012
12.264,8.052
12.268,8.032
12.272,7.996
12.276,8.008
12.28,8.056
12.284,8.024
12.288,7.984
12.292,8.008
12.296,8.06
12.3,8.028
12.304,7.952
12.308,7.968
12.312,8.04
12.316,8.008
12.32,7.976
12.324,7.968
12.328,8.028
12.332,8.024
12.336,7.98
12.34,7.972
12.344,8.008
12.348,8.04
12.352,8.004
12.356,7.956
12.36,7.996
12.364,8.036
12.368,8.012
12.372,7.956
12.376,7.984
12.38,8.036
12.384,8.008
12.388,7.948
12.392,7.964
12.396,8.028
12.4,8.016
12.404,7.968
12.408,7.964
12.412,8.032
12.416,8.032
12.42,7.98
12.424,7.964
12.428,8
12.432,8.052
12.436,7.988
12.44,7.988
12.444,8.024
12.448,8.064
12.452,8.008
12.456,7.98
12.46,7.996
12.464,8.076
12.468,8.008
12.472,7.964
12.476,8
12.48,8.036
12.484,8.028
12.488,7.956
12.492,7.976
12.496,8.02
12.5,8.012
12.504,7.992
12.508,7.988
12.512,8.04
12.516,8.04
12.52,7.988
12.524,7.98
12.528,8.036
12.532,8.036
12.536,7.968
12.54,7.956
12.544,8.024
12.548,8.096
12.552,8.076
12.556,8.04
12.56,8.072
12.564,8.124
12.568,8.144
12.572,8.128
12.576,8.16
12.58,8.232
12.584,8.2
12.588,8.14
12.592,8.188
12.596,8.256
12.6,8.244
12.604,8.164
12.608,8.124
12.612,8.208
12.616,8.188
12.62,8.092
12.624,7.996
12.628,7.972
12.632,8
12.636,7.98
12.64,7.916
12.644,7.948
12.648,8.004
12.652,7.948
12.656,7.92
12.66,7.944
12.664,7.984
12.668,7.928
12.672,7.9
12.676,7.912
12.68,7.98
12.684,7.912
12.688,7.808
12.692,7.8
12.696,7.796
12.7,7.86
12.704,8.356
12.708,9.144
12.712,10.092
12.716,10.908
12.72,10.528
12.724,9.924
12.728,9.636
12.732,9.276
12.736,8.684
12.74,8.244
12.744,8.08
12.748,8.096
12.752,8.052
12.756,8.048
12.76,8.036
12.764,8.044
12.768,8.004
12.772,7.904
12.776,7.936
12.78,7.968
12.784,7.964
12.788,7.948
12.792,7.96
12.796,8.024
12.8,7.98
12.804,7.928
12.808,7.932
12.812,7.988
12.816,8.004
12.82,7.944
12.824,7.904
12.828,7.972
12.832,8.012
12.836,7.98
12.84,7.932
12.844,7.988
12.848,8.012
12.852,7.992
12.856,7.92
12.86,7.972
12.864,8.02
12.868,8.004
12.872,7.988
12.876,8.012
12.88,8.056
12.884,8.012
12.888,7.968
12.892,8.004
12.896,8.076
12.9,8.052
12.904,8.016
12.908,8.052
12.912,8.104
12.916,8.112
12.92,8.064
12.924,8.052
12.928,8.144
12.932,8.152
12.936,8.12
12.94,8.112
12.944,8.152
12.948,8.228
12.952,8.184
12.956,8.188
12.96,8.228
12.964,8.3
12.968,8.276
12.972,8.236
12.976,8.288
12.98,8.372
12.984,8.396
12.988,8.352
12.992,8.384
12.996,8.456
13,8.472
13.004,8.432
13.008,8.464
13.012,8.512
13.016,8.532
13.02,8.512
13.024,8.504
13.028,8.5
13.032,8.528
13.036,8.432
13.04,8.4
13.044,8.404
13.048,8.4
13.052,8.332
13.056,8.244
13.06,8.244
13.064,8.224
13.068,8.14
13.072,8.068
13.076,8.068
13.08,8.108
13.084,8.08
13.088,8.004
13.092,8.004
13.096,8.036
13.1,8.004
13.104,7.944
13.108,7.948
13.112,8.012
13.116,8.016
13.12,7.956
13.124,7.94
13.128,7.984
13.132,8.012
13.136,7.984
13.14,7.94
13.144,7.956
13.148,8.004
13.152,7.98
13.156,7.944
13.16,7.988
13.164,8.028
13.168,7.988
13.172,7.944
13.176,7.988
13.18,8.032
13.184,7.996
13.188,7.944
13.192,7.964
13.196,8.02
13.2,8
13.204,7.952
13.208,7.948
13.212,8.016
13.216,7.992
13.22,7.96
13.224,7.952
13.228,7.98
13.232,8.016
13.236,7.956
13.24,7.932
13.244,7.98
13.248,7.984
13.252,7.948
13.256,7.92
13.26,7.932
13.264,8.008
13.268,7.948
13.272,7.912
13.276,7.936
13.28,7.996
13.284,7.98
13.288,7.92
13.292,7.912
13.296,7.948
13.3,7.972
13.304,7.908
13.308,7.932
13.312,7.944
13.316,7.932
13.32,7.904
13.324,7.884
13.328,7.96
13.332,7.968
13.336,7.904
13.34,7.896
13.344,7.94
13.348,7.956
13.352,7.944
13.356,7.9
13.36,7.944
13.364,7.972
13.368,7.944
13.372,7.924
13.376,7.952
13.38,7.96
13.384,7.916
13.388,7.9
13.392,7.908
13.396,7.988
13.4,7.964
13.404,7.892
13.408,7.916
13.412,7.956
13.416,7.964
13.42,7.916
13.424,7.904
13.428,7.932
13.432,7.944
13.436,7.888
13.44,7.9
13.444,7.948
13.448,7.96
13.452,7.932
13.456,7.912
13.46,7.928
13.464,7.94
13.468,7.892
13.472,7.864
13.476,7.924
13.48,8.012
13.484,7.984
13.488,7.956
13.492,7.976
13.496,8.064
13.5,8.088
13.504,8.048
13.508,8.072
13.512,8.116
13.516,8.128
13.52,8.108
13.524,8.104
13.528,8.152
13.532,8.172
13.536,8.092
13.54,8.052
13.544,8.12
13.548,8.164
13.552,8.028
13.556,7.904
13.56,7.924
13.564,7.98
13.568,7.92
13.572,7.88
13.576,7.916
13.58,7.956
13.584,7.912
13.588,7.844
13.592,7.892
13.596,7.924
13.6,7.864
13.604,7.844
13.608,7.88
13.612,7.944
13.616,7.896
13.62,7.768
13.624,7.712
13.628,7.708
13.632,7.772
13.636,8.284
13.64,9.096
13.644,10.02
13.648,10.864
13.652,10.7
13.656,10.024
13.66,9.66
13.664,9.36
13.668,8.808
13.672,8.336
13.676,8.052
13.68,8.048
13.684,8.004
13.688,7.996
13.692,8.06
13.696,8.048
13.7,7.996
13.704,7.928
13.708,7.916
13.712,7.964
13.716,7.936
13.72,7.908
13.724,7.888
13.728,7.916
13.732,7.952
13.736,7.924
13.74,7.916
13.744,7.936
13.748,7.98
13.752,7.892
13.756,7.86
13.76,7.928
13.764,7.956
13.768,7.928
13.772,7.9
13.776,7.94
13.78,7.98
13.784,7.948
13.788,7.9
13.792,7.932
13.796,7.976
13.8,7.968
13.804,7.932
13.808,7.932
13.812,7.98
13.816,7.98
13.82,7.948
13.824,7.972
13.828,8.008
13.832,8.064
13.836,7.98
13.84,7.956
13.844,8.044
13.848,8.064
13.852,7.996
13.856,7.968
13.86,8.064
13.864,8.092
13.868,8.084
13.872,8.048
13.876,8.112
13.88,8.144
13.884,8.136
13.888,8.112
13.892,8.152
13.896,8.208
13.9,8.212
13.904,8.184
13.908,8.232
13.912,8.308
13.916,8.34
13.92,8.292
13.924,8.308
13.928,8.376
13.932,8.404
13.936,8.396
13.94,8.376
13.944,8.448
13.948,8.468
13.952,8.444
13.956,8.408
13.96,8.452
13.964,8.492
13.968,8.436
13.972,8.372
13.976,8.336
13.98,8.368
13.984,8.26
13.988,8.192
13.992,8.168
13.996,8.184
14,8.128
14.004,8.06
14.008,8.036
14.012,8.036
14.016,8.024
14.02,7.956
14.024,7.952
14.028,7.984
14.032,7.984
14.036,7.936
14.04,7.928
14.044,7.956
14.048,7.984
14.052,7.94
14.056,7.88
14.06,7.92
14.064,7.988
14.068,7.936
14.072,7.884
14.076,7.92
14.08,7.98
14.084,7.952
14.088,7.908
14.092,7.908
14.096,7.964
14.1,7.944
14.104,7.9
14.108,7.924
14.112,7.956
14.116,7.932
14.12,7.904
14.124,7.912
14.128,7.996
14.132,7.968
14.136,7.888
14.14,7.896
14.144,7.928
14.148,7.972
14.152,7.892
14.156,7.884
14.16,7.888
14.164,7.932
14.168,7.912
14.172,7.884
14.176,7.92
14.18,7.956
14.184,7.916
14.188,7.868
14.192,7.884
14.196,7.94
14.2,7.916
14.204,7.892
14.208,7.888
14.212,7.928
14.216,7.932
14.22,7.912
14.224,7.864
14.228,7.908
14.232,7.952
14.236,7.884
14.24,7.848
14.244,7.92
14.248,7.936
14.252,7.916
14.256,7.892
14.26,7.924
14.264,7.972
14.268,7.912
14.272,7.912
14.276,7.924
14.28,7.992
14.284,7.92
14.288,7.86
14.292,7.9
14.296,7.964
14.3,7.972
14.304,7.928
14.308,7.94
14.312,7.972
14.316,7.956
14.32,7.904
14.324,7.908
14.328,7.952
14.332,7.956
14.336,7.908
14.34,7.892
14.344,7.988
14.348,7.964
14.352,7.936
14.356,7.896
14.36,7.924
14.364,7.984
14.368,7.936
14.372,7.912
14.376,7.936
14.38,7.976
14.384,7.956
14.388,7.952
14.392,7.948
14.396,8.036
14.4,7.984
14.404,7.944
14.408,7.924
14.412,7.98
14.416,7.968
14.42,7.908
14.424,7.924
14.428,7.956
14.432,8.024
14.436,7.972
14.44,7.976
14.444,7.984
14.448,8.068
14.452,8.04
14.456,8.032
14.46,8.092
14.464,8.176
14.468,8.14
14.472,8.112
14.476,8.144
14.48,8.196
14.484,8.18
14.488,8.144
14.492,8.144
14.496,8.164
14.5,8.128
14.504,8.104
14.508,8.056
14.512,8.04
14.516,8.008
14.52,7.94
14.524,7.94
14.528,7.972
14.532,7.976
14.536,7.928
14.54,7.896
14.544,7.932
14.548,7.964
14.552,7.9
14.556,7.868
14.56,7.896
14.564,7.972
14.568,7.916
14.572,7.848
14.576,7.82
14.58,7.836
14.584,7.76
14.588,7.716
14.592,8.204
14.596,9.056
14.6,10
14.604,10.868
14.608,10.836
14.612,10.256
14.616,9.832
14.62,9.42
14.624,8.876
14.628,8.432
14.632,8.14
14.636,8.032
14.64,8.004
14.644,8.084
14.648,8.112
14.652,8.04
14.656,7.988
14.66,7.968
14.664,7.984
14.668,7.952
14.672,7.908
14.676,7.924
14.68,7.992
14.684,7.956
14.688,7.936
14.692,7.952
14.696,7.992
14.7,7.984
14.704,7.908
14.708,7.924
14.712,7.98
14.716,7.988
14.72,7.932
14.724,7.916
14.728,7.968
14.732,8.032
14.736,7.968
14.74,7.932
14.744,7.976
14.748,8.028
14.752,7.972
14.756,7.956
14.76,7.98
14.764,8.02
14.768,8
14.772,7.952
14.776,8.016
14.78,8.06
14.784,8.012
14.788,7.992
14.792,8.02
14.796,8.096
14.8,8.08
14.804,8.04
14.808,8.056
14.812,8.128
14.816,8.124
14.82,8.076
14.824,8.068
14.828,8.18
14.832,8.212
14.836,8.172
14.84,8.184
14.844,8.24
14.848,8.284
14.852,8.24
14.856,8.232
14.86,8.316
14.864,8.376
14.868,8.38
14.872,8.336
14.876,8.396
14.88,8.492
14.884,8.48
14.888,8.456
14.892,8.484
14.896,8.556
14.9,8.564
14.904,8.532
14.908,8.548
14.912,8.592
14.916,8.584
14.92,8.528
14.924,8.484
14.928,8.504
14.932,8.52
14.936,8.432
14.94,8.344
14.944,8.324
14.948,8.324
14.952,8.236
14.956,8.16
14.96,8.16
14.964,8.184
14.968,8.116
14.972,8.056
14.976,8.084
14.98,8.088
14.984,8.048
14.988,7.976
14.992,7.972
14.996,8.076
15,8.04
15.004,7.952
15.008,7.972
15.012,8.048
15.016,8.012
15.02,7.968
15.024,7.992
15.028,8.028
15.032,8.048
15.036,8.004
15.04,7.996
15.044,8.024
15.048,8.08
15.052,8
15.056,7.976
15.06,8.04
15.064,8.084
15.068,8.048
15.072,7.968
15.076,8.024
15.08,8.1
15.084,8.064
15.088,8.024
15.092,8.032
15.096,8.084
15.1,8.068
15.104,8.04
15.108,8.028
15.112,8.1
15.116,8.092
15.12,8.024
15.124,8.04
15.128,8.068
15.132,8.084
15.136,8.024
15.14,8.004
15.144,8.064
15.148,8.096
15.152,8.044
15.156,8.012
15.16,8.052
15.164,8.1
15.168,8.068
15.172,7.968
15.176,8.028
15.18,8.092
15.184,8.06
15.188,8
15.192,8.012
15.196,8.068
15.2,8.06
15.204,7.988
15.208,8.028
15.212,8.06
15.216,8.084
15.22,8.004
15.224,7.988
15.228,8.068
15.232,8.06
15.236,8.024
15.24,7.992
15.244,8.044
15.248,8.088
15.252,8.032
15.256,8.016
15.26,8.036
15.264,8.092
15.268,8.06
15.272,8.012
15.276,8.052
15.28,8.072
15.284,8.052
15.288,8.016
15.292,8.036
15.296,8.084
15.3,8.084
15.304,8.012
15.308,8.028
15.312,8.084
15.316,8.076
15.32,8.032
15.324,8.016
15.328,8.084
15.332,8.08
15.336,8.008
15.34,8.016
15.344,8.08
15.348,8.064
15.352,8.028
15.356,7.96
15.36,8.04
15.364,8.072
15.368,8.052
15.372,7.98
15.376,8.032
15.38,8.088
15.384,8.064
15.388,7.988
15.392,8
15.396,8.064
15.4,8.044
15.404,8
15.408,8.004
15.412,8.048
15.416,8.052
15.42,8.012
15.424,8.032
15.428,8.132
15.432,8.128
15.436,8.12
15.44,8.104
15.444,8.188
15.448,8.272
15.452,8.228
15.456,8.168
15.46,8.216
15.464,8.28
15.468,8.224
15.472,8.204
15.476,8.236
15.48,8.26
15.484,8.204
15.488,8.14
15.492,8.164
15.496,8.164
15.5,8.072
15.504,8.016
15.508,8.008
15.512,8.1
15.516,8.052
15.52,7.996
15.524,7.984
15.528,8.012
15.532,8.048
15.536,7.98
15.54,7.976
15.544,7.984
15.548,8.032
15.552,7.98
15.556,7.96
15.56,7.972
15.564,7.944
15.568,7.868
15.572,7.772
15.576,8.052
15.58,8.732
15.584,9.564
15.588,10.432
15.592,11.04
15.596,10.58
15.6,10.06
15.604,9.676
15.608,9.2
15.612,8.764
15.616,8.312
15.62,8.148
15.624,8.144
15.628,8.164
15.632,8.212
15.636,8.104
15.64,8.052
15.644,8.072
15.648,8.088
15.652,8.02
15.656,7.964
15.66,8.016
15.664,8.064
15.668,8.02
15.672,7.984
15.676,8.036
15.68,8.076
15.684,8.056
15.688,8.008
15.692,8.036
15.696,8.076
15.7,8.056
15.704,8.02
15.708,8.032
15.712,8.084
15.716,8.088
15.72,8.016
15.724,8.016
15.728,8.084
15.732,8.1
15.736,8.052
15.74,8.004
15.744,8.08
15.748,8.104
15.752,8.072
15.756,8.048
15.76,8.076
15.764,8.132
15.768,8.092
15.772,8.048
15.776,8.1
15.78,8.148
15.784,8.144
15.788,8.076
15.792,8.096
15.796,8.212
15.8,8.208
15.804,8.156
15.808,8.168
15.812,8.244
15.816,8.26
15.82,8.192
15.824,8.212
15.828,8.288
15.832,8.328
15.836,8.32
15.84,8.312
15.844,8.368
15.848,8.404
15.852,8.38
15.856,8.376
15.86,8.444
15.864,8.508
15.868,8.476
15.872,8.46
15.876,8.516
15.88,8.604
15.884,8.576
15.888,8.544
15.892,8.576
15.896,8.656
15.9,8.64
15.904,8.556
15.908,8.548
15.912,8.572
15.916,8.552
15.92,8.464
15.924,8.416
15.928,8.428
15.932,8.4
15.936,8.312
15.94,8.22
15.944,8.256
15.948,8.268
15.952,8.164
15.956,8.08
15.96,8.12
15.964,8.14
15.968,8.108
15.972,8.044
15.976,8.056
15.98,8.116
15.984,8.076
15.988,8.048
15.992,8.032
15.996,8.068
16,8.06
16.004,7.992
16.008,8.004
16.012,8.048
16.016,8.064
16.02,8.004
16.024,7.996
16.028,8.036
16.032,8.068
16.036,8.036
16.04,8
16.044,8.028
16.048,8.08
16.052,8.024
16.056,8
16.06,8.024
16.064,8.064
16.068,8.02
16.072,8
16.076,8.036
16.08,8.096
16.084,8.024
16.088,7.972
16.092,8.02
16.096,8.064
16.1,8.044
16.104,7.972
16.108,8
16.112,8.048
16.116,8.044
16.12,7.968
16.124,7.992
16.128,8
16.132,8.016
16.136,7.948
16.14,7.948
16.144,7.996
16.148,8.012
16.152,7.988
16.156,7.956
16.16,7.984
16.164,8.048
16.168,7.976
16.172,7.92
16.176,7.948
16.18,8.004
16.184,7.976
16.188,7.952
16.192,7.972
16.196,8.032
16.2,8.016
16.204,7.956
16.208,7.968
16.212,8.02
16.216,8.016
16.22,7.948
16.224,7.96
16.228,8.008
16.232,8.032
16.236,7.96
16.24,7.928
16.244,8.004
16.248,8.016
16.252,7.988
16.256,7.932
16.26,7.968
16.264,8.02
16.268,7.956
16.272,7.928
16.276,7.956
16.28,8.04
16.284,7.996
16.288,7.928
16.292,7.968
16.296,8.024
16.3,8.02
16.304,7.94
16.308,7.956
16.312,8.012
16.316,8.02
16.32,7.972
16.324,7.972
16.328,8.04
16.332,8.032
16.336,7.964
16.34,7.952
16.344,8.008
16.348,8.02
16.352,7.992
16.356,7.976
16.36,8.008
16.364,8.04
16.368,7.992
16.372,7.944
16.376,7.984
16.38,8.044
16.384,8.024
16.388,7.94
16.392,7.988
16.396,8.044
16.4,8.048
16.404,7.964
16.408,7.96
16.412,8.04
16.416,8.052
16.42,8.028
16.424,8.04
16.428,8.104
16.432,8.136
16.436,8.088
16.44,8.084
16.444,8.192
16.448,8.224
16.452,8.204
16.456,8.164
16.46,8.2
16.464,8.228
16.468,8.208
16.472,8.176
16.476,8.164
16.48,8.204
16.484,8.18
16.488,8.116
16.492,8.06
16.496,8.064
16.5,8.036
16.504,7.96
16.508,7.964
16.512,7.996
16.516,8.004
16.52,7.948
16.524,7.92
16.528,8
16.532,7.996
16.536,7.924
16.54,7.92
16.544,7.976
16.548,8
16.552,7.96
16.556,7.868
16.56,7.844
16.564,7.844
16.568,7.74
16.572,8.08
16.576,8.832
16.58,9.8
16.584,10.672
16.588,10.912
16.592,10.348
16.596,9.956
16.6,9.62
16.604,9.1
16.608,8.62
16.612,8.32
16.616,8.152
16.62,8.068
16.624,8.104
16.628,8.136
16.632,8.144
16.636,8
16.64,7.992
16.644,8.004
16.648,8.012
16.652,7.988
16.656,7.956
16.66,8
16.664,8.064
16.668,7.996
16.672,7.936
16.676,7.968
16.68,8.048
16.684,8.012
16.688,7.948
16.692,7.96
16.696,8.02
16.7,8.024
16.704,7.968
16.708,7.984
16.712,8.016
16.716,8.032
16.72,7.964
16.724,7.996
16.728,8.024
16.732,8.04
16.736,8
16.74,7.984
16.744,8.052
16.748,8.044
16.752,8.016
16.756,8
16.76,8.04
16.764,8.088
16.768,8.072
16.772,8.024
16.776,8.048
16.78,8.1
16.784,8.08
16.788,8.032
16.792,8.08
16.796,8.132
16.8,8.136
16.804,8.072
16.808,8.112
16.812,8.172
16.816,8.188
16.82,8.152
16.824,8.148
16.828,8.244
16.832,8.276
16.836,8.244
16.84,8.236
16.844,8.308
16.848,8.34
16.852,8.336
16.856,8.316
16.86,8.368
16.864,8.436
16.868,8.42
16.872,8.388
16.876,8.468
16.88,8.52
16.884,8.496
16.888,8.468
16.892,8.492
16.896,8.564
16.9,8.52
16.904,8.44
16.908,8.44
16.912,8.44
16.916,8.42
16.92,8.328
16.924,8.3
16.928,8.296
16.932,8.28
16.936,8.188
16.94,8.14
16.944,8.156
16.948,8.14
16.952,8.088
16.956,8.036
16.96,8.048
16.964,8.096
16.968,8.016
16.972,7.98
16.976,8.004
16.98,8.068
16.984,8.036
16.988,7.976
16.992,7.984
16.996,8.056
17,8.032
17.004,7.976
17.008,7.988
17.012,8.056
17.016,8.036
17.02,7.98
17.024,7.98
17.028,8.032
17.032,8.064
17.036,8.016
17.04,7.992
17.044,8.028
17.048,8.052
17.052,8.004
17.056,7.996
17.06,8.024
17.064,8.056
17.068,8.028
17.072,7.964
17.076,7.996
17.08,8.06
17.084,8.02
17.088,7.976
17.092,8.012
17.096,8.064
17.1,8.048
17.104,7.984
17.108,7.976
17.112,8.044
17.116,8.048
17.12,7.972
17.124,7.972
17.128,8.044
17.132,8.024
17.136,7.984
17.14,7.948
17.144,7.976
17.148,7.992
17.152,7.916
17.156,7.96
17.16,8.02
17.164,7.996
17.168,7.968
17.172,7.944
17.176,7.964
17.18,8.04
17.184,7.992
17.188,7.924
17.192,7.948
17.196,8.028
17.2,7.996
17.204,7.94
17.208,7.976
17.212,8.012
17.216,8
17.22,7.952
17.224,7.932
17.228,7.98
17.232,7.972
17.236,7.936
17.24,7.924
17.244,7.984
17.248,8.024
17.252,7.96
17.256,7.924
17.26,7.972
17.264,8.028
17.268,7.968
17.272,7.928
17.276,7.968
17.28,8.024
17.284,7.992
17.288,7.92
17.292,7.964
17.296,8.012
17.3,7.996
17.304,7.944
17.308,7.96
17.312,8.02
17.316,7.992
17.32,7.948
17.324,7.956
17.328,8.02
17.332,8.004
17.336,7.968
17.34,7.936
17.344,7.992
17.348,8.028
17.352,7.984
17.356,7.952
17.36,7.976
17.364,8.012
17.368,7.96
17.372,7.96
17.376,7.98
17.38,8.032
17.384,8
17.388,7.964
17.392,8.02
17.396,8.112
17.4,8.08
17.404,8.028
17.408,8.064
17.412,8.136
17.416,8.176
17.42,8.14
17.424,8.144
17.428,8.224
17.432,8.212
17.436,8.184
17.44,8.168
17.444,8.224
17.448,8.228
17.452,8.152
17.456,8.116
17.46,8.168
17.464,8.18
17.468,8.044
17.472,7.964
17.476,7.992
17.48,8.032
17.484,8
17.488,7.952
17.492,7.984
17.496,8.02
17.5,8
17.504,7.964
17.508,7.964
17.512,8.008
17.516,8
17.52,7.94
17.524,7.96
17.528,7.996
17.532,7.924
17.536,7.848
17.54,7.812
17.544,7.848
17.548,8.3
17.552,8.92
17.556,9.864
17.56,10.848
17.564,11.112
17.568,10.48
17.572,9.96
17.576,9.628
17.58,9.156
17.584,8.596
17.588,8.22
17.592,8.136
17.596,8.196
17.6,8.156
17.604,8.132
17.608,8.092
17.612,8.14
17.616,8.084
17.62,8.008
17.624,7.988
17.628,8.056
17.632,8.048
17.636,7.996
17.64,7.996
17.644,8.036
17.648,8.036
17.652,8.032
17.656,7.972
17.66,8.032
17.664,8.036
17.668,7.992
17.672,8.024
17.676,8.064
17.68,8.096
17.684,8.032
17.688,7.992
17.692,8
17.696,8.028
17.7,8.056
17.704,8.02
17.708,8.036
17.712,8.108
17.716,8.1
17.72,8.048
17.724,8.024
17.728,8.104
17.732,8.108
17.736,8.04
17.74,8.044
17.744,8.104
17.748,8.128
17.752,8.092
17.756,8.084
17.76,8.128
17.764,8.196
17.768,8.148
17.772,8.112
17.776,8.14
17.78,8.192
17.784,8.188
17.788,8.164
17.792,8.216
17.796,8.26
17.8,8.264
17.804,8.252
17.808,8.272
17.812,8.324
17.816,8.344
17.82,8.312
17.824,8.336
17.828,8.432
17.832,8.452
17.836,8.4
17.84,8.428
17.844,8.528
17.848,8.548
17.852,8.548
17.856,8.532
17.86,8.576
17.864,8.652
17.868,8.58
17.872,8.556
17.876,8.584
17.88,8.604
17.884,8.544
17.888,8.432
17.892,8.46
17.896,8.484
17.9,8.404
17.904,8.308
17.908,8.268
17.912,8.308
17.916,8.268
17.92,8.152
17.924,8.12
17.928,8.168
17.932,8.14
17.936,8.08
17.94,8.036
17.944,8.06
17.948,8.072
17.952,8.056
17.956,7.996
17.96,8.024
17.964,8.088
17.968,8.016
17.972,7.98
17.976,8.02
17.98,8.08
17.984,8.04
17.988,8.008
17.992,8.012
17.996,8.072
18,8.048
18.004,8
18.008,8.024
18.012,8.068
18.016,8.06
18.02,8.016
18.024,8.016
18.028,8.068
18.032,8.068
18.036,8.008
18.04,7.984
18.044,8.048
18.048,8.06
18.052,8.008
18.056,7.98
18.06,8.016
18.064,8.04
18.068,8.04
18.072,8.004
18.076,8.032
18.08,8.06
18.084,8.004
18.088,7.996
18.092,7.988
18.096,8.048
18.1,8.008
18.104,7.96
18.108,8
18.112,8.06
18.116,8.052
18.12,7.948
18.124,7.972
18.128,8.028
18.132,8.04
18.136,7.98
18.14,7.952
18.144,8.04
18.148,8.04
18.152,7.992
18.156,7.964
18.16,7.984
18.164,8.028
18.168,8.028
18.172,7.988
18.176,8
18.18,8.048
18.184,8.032
18.188,7.992
18.192,8.008
18.196,8.076
18.2,8.032
18.204,7.952
18.208,7.94
18.212,8.04
18.216,8.048
18.22,7.976
18.224,7.968
18.228,8.028
18.232,8.028
18.236,7.948
18.24,7.96
18.244,8.012
18.248,8.02
18.252,7.992
18.256,7.968
18.26,8.016
18.264,8.056
18.268,8.016
18.272,7.964
18.276,7.988
18.28,8.048
18.284,8.004
18.288,7.936
18.292,7.968
18.296,8.004
18.3,7.984
18.304,7.96
18.308,7.948
18.312,8.004
18.316,7.988
18.32,7.928
18.324,7.94
18.328,8.008
18.332,8.016
18.336,7.944
18.34,7.924
18.344,7.996
18.348,8.004
18.352,7.944
18.356,7.944
18.36,7.984
18.364,8.004
18.368,7.956
18.372,7.964
18.376,8.008
18.38,8.052
18.384,8.048
18.388,8.028
18.392,8.076
18.396,8.164
18.4,8.152
18.404,8.1
18.408,8.16
18.412,8.236
18.416,8.232
18.42,8.148
18.424,8.172
18.428,8.204
18.432,8.188
18.436,8.12
18.44,8.088
18.444,8.116
18.448,8.076
18.452,7.956
18.456,7.94
18.46,7.996
18.464,7.968
18.468,7.924
18.472,7.9
18.476,7.944
18.48,7.972
18.484,7.936
18.488,7.86
18.492,7.9
18.496,7.968
18.5,7.94
18.504,7.884
18.508,7.916
18.512,7.936
18.516,7.856
18.52,7.776
18.524,7.716
18.528,8.148
18.532,8.848
18.536,9.664
18.54,10.588
18.544,10.948
18.548,10.376
18.552,9.868
18.556,9.512
18.56,9.104
18.564,8.672
18.568,8.244
18.572,8.056
18.576,8.092
18.58,8.112
18.584,8.092
18.588,8.004
18.592,7.996
18.596,8.02
18.6,7.98
18.604,7.896
18.608,7.92
18.612,7.94
18.616,7.956
18.62,7.892
18.624,7.884
18.628,7.952
18.632,7.944
18.636,7.892
18.64,7.888
18.644,7.932
18.648,7.96
18.652,7.916
18.656,7.876
18.66,7.924
18.664,7.972
18.668,7.94
18.672,7.904
18.676,7.952
18.68,7.992
18.684,7.928
18.688,7.868
18.692,7.888
18.696,7.98
18.7,7.936
18.704,7.88
18.708,7.916
18.712,7.98
18.716,7.996
18.72,7.912
18.724,7.948
18.728,8
18.732,8.016
18.736,7.976
18.74,7.968
18.744,8.052
18.748,8.08
18.752,7.972
18.756,7.972
18.76,8.036
18.764,8.08
18.768,8.052
18.772,8.036
18.776,8.112
18.78,8.168
18.784,8.16
18.788,8.104
18.792,8.156
18.796,8.236
18.8,8.248
18.804,8.208
18.808,8.236
18.812,8.308
18.816,8.32
18.82,8.28
18.824,8.32
18.828,8.396
18.832,8.388
18.836,8.356
18.84,8.404
18.844,8.456
18.848,8.484
18.852,8.448
18.856,8.412
18.86,8.404
18.864,8.452
18.868,8.36
18.872,8.28
18.876,8.292
18.88,8.276
18.884,8.196
18.888,8.132
18.892,8.12
18.896,8.112
18.9,8.072
18.904,7.98
18.908,7.948
18.912,8.012
18.916,7.976
18.92,7.896
18.924,7.884
18.928,7.936
18.932,7.94
18.936,7.86
18.94,7.852
18.944,7.9
18.948,7.92
18.952,7.88
18.956,7.848
18.96,7.904
18.964,7.92
18.968,7.864
18.972,7.828
18.976,7.884
18.98,7.94
18.984,7.9
18.988,7.856
18.992,7.892
18.996,7.948
19,7.92
19.004,7.84
19.008,7.868
19.012,7.952
19.016,7.928
19.02,7.872
19.024,7.888
19.028,7.928
19.032,7.928
19.036,7.892
19.04,7.856
19.044,7.94
19.048,7.912
19.052,7.872
19.056,7.84
19.06,7.92
19.064,7.956
19.068,7.884
19.072,7.868
19.076,7.892
19.08,7.944
19.084,7.912
19.088,7.868
19.092,7.9
19.096,7.948
19.1,7.92
19.104,7.848
19.108,7.9
19.112,7.924
19.116,7.904
19.12,7.856
19.124,7.864
19.128,7.928
19.132,7.92
19.136,7.852
19.14,7.872
19.144,7.924
19.148,7.94
19.152,7.88
19.156,7.86
19.16,7.908
19.164,7.916
19.168,7.884
19.172,7.856
19.176,7.88
19.18,7.924
19.184,7.872
19.188,7.844
19.192,7.92
19.196,7.952
19.2,7.912
19.204,7.828
19.208,7.872
19.212,7.928
19.216,7.936
19.22,7.856
19.224,7.856
19.228,7.92
19.232,7.932
19.236,7.868
19.24,7.828
19.244,7.9
19.248,7.924
19.252,7.856
19.256,7.84
19.26,7.928
19.264,7.932
19.268,7.872
19.272,7.84
19.276,7.88
19.28,7.92
19.284,7.864
19.288,7.824
19.292,7.856
19.296,7.92
19.3,7.876
19.304,7.828
19.308,7.868
19.312,7.908
19.316,7.9
19.32,7.856
19.324,7.868
19.328,7.908
19.332,7.896
19.336,7.876
19.34,7.912
19.344,7.996
19.348,8.008
19.352,7.996
19.356,7.956
19.36,8.052
19.364,8.128
19.368,8.088
19.372,8.06
19.376,8.088
19.38,8.156
19.384,8.116
19.388,8.08
19.392,8.1
19.396,8.132
19.4,8.072
19.404,8.052
19.408,8.004
19.412,7.992
19.416,7.932
19.42,7.884
19.424,7.88
19.428,7.932
19.432,7.932
19.436,7.84
19.44,7.864
19.444,7.9
19.448,7.904
19.452,7.864
19.456,7.856
19.46,7.912
19.464,7.944
19.468,7.896
19.472,7.828
19.476,7.804
19.48,7.804
19.484,7.688
19.488,7.756
19.492,8.384
19.496,9.276
19.5,10.24
19.504,11.048
19.508,10.804
19.512,10.244
19.516,9.824
19.52,9.34
19.524,8.796
19.528,8.38
19.532,8.172
19.536,8.068
19.54,8.052
19.544,8.084
19.548,8.084
19.552,7.968
19.556,7.912
19.56,7.964
19.564,7.98
19.568,7.92
19.572,7.88
19.576,7.92
19.58,7.964
19.584,7.944
19.588,7.868
19.592,7.908
19.596,7.984
19.6,7.948
19.604,7.928
19.608,7.928
19.612,7.976
19.616,7.956
19.62,7.904
19.624,7.932
19.628,8.012
19.632,7.992
19.636,7.94
19.64,7.936
19.644,8.012
19.648,8.012
19.652,7.976
19.656,7.944
19.66,8.004
19.664,8.048
19.668,8.004
19.672,7.956
19.676,7.996
19.68,8.06
19.684,8.02
19.688,7.988
19.692,8.012
19.696,8.08
19.7,8.044
19.704,8.008
19.708,8.056
19.712,8.128
19.716,8.128
19.72,8.06
19.724,8.092
19.728,8.156
19.732,8.18
19.736,8.136
19.74,8.128
19.744,8.232
19.748,8.264
19.752,8.24
19.756,8.224
19.76,8.292
19.764,8.344
19.768,8.328
19.772,8.324
19.776,8.396
19.78,8.444
19.784,8.424
19.788,8.404
19.792,8.484
19.796,8.556
19.8,8.528
19.804,8.508
19.808,8.556
19.812,8.612
19.816,8.576
19.82,8.536
19.824,8.492
19.828,8.532
19.832,8.472
19.836,8.372
19.84,8.324
19.844,8.344
19.848,8.312
19.852,8.18
19.856,8.14
19.86,8.16
19.864,8.184
19.868,8.1
19.872,8.04
19.876,8.032
19.88,8.084
19.884,8.032
19.888,7.984
19.892,8
19.896,8.072
19.9,8.016
19.904,7.972
19.908,7.972
19.912,8.048
19.916,8.032
19.92,7.976
19.924,7.988
19.928,8.04
19.932,8.048
19.936,7.98
19.94,7.96
19.944,8.044
19.948,8.064
19.952,8.012
19.956,7.972
19.96,8.028
19.964,8.076
19.968,8.028
19.972,7.996
19.976,8.048
19.98,8.076
19.984,8.024
19.988,7.976
19.992,8.02
19.996,8.064
20,8.052
20.004,7.984
20.008,8.012
20.012,8.056
20.016,8.064
20.02,7.992
20.024,8
20.028,8.056
20.032,8.044
20.036,8.008
20.04,8.004
20.044,8.024
20.048,8.052
20.052,7.992
20.056,7.98
20.06,8.032
20.064,8.024
20.068,8.004
20.072,7.964
20.076,8.036
20.08,8.084
20.084,8.024
20.088,7.972
20.092,8.02
20.096,8.076
20.1,8.052
20.104,7.984
20.108,8.024
20.112,8.084
20.116,8.06
20.12,8.02
20.124,8.02
20.128,8.084
20.132,8.068
20.136,7.996
20.14,8
20.144,8.068
20.148,8.096
20.152,8.032
20.156,8.02
20.16,8.08
20.164,8.092
20.168,8.044
20.172,8.016
20.176,8.056
20.18,8.08
20.184,8.08
20.188,8.008
20.192,8.048
20.196,8.092
20.2,8.064
20.204,8.012
20.208,8.052
20.212,8.116
20.216,8.088
20.22,8.024
20.224,8.032
20.228,8.084
20.232,8.116
20.236,8.032
20.24,8.04
20.244,8.096
20.248,8.124
20.252,8.064
20.256,8.064
20.26,8.076
20.264,8.12
20.268,8.064
20.272,8.024
20.276,8.088
20.28,8.128
20.284,8.084
20.288,8.028
20.292,8.108
20.296,8.16
20.3,8.116
20.304,8.028
20.308,8.068
20.312,8.12
20.316,8.14
20.32,8.096
20.324,8.12
20.328,8.208
20.332,8.224
20.336,8.192
20.34,8.216
20.344,8.292
20.348,8.324
20.352,8.276
20.356,8.28
20.36,8.328
20.364,8.364
20.368,8.296
20.372,8.28
20.376,8.308
20.38,8.336
20.384,8.28
20.388,8.212
20.392,8.184
20.396,8.196
20.4,8.14
20.404,8.112
20.408,8.088
20.412,8.136
20.416,8.12
20.42,8.068
20.424,8.076
20.428,8.124
20.432,8.116
20.436,8.056
20.44,8.06
20.444,8.096
20.448,8.148
20.452,8.068
20.456,8
20.46,7.98
20.464,7.988
20.468,7.904
20.472,8.176
20.476,8.912
20.48,9.872
20.484,10.804
20.488,11.196
20.492,10.664
20.496,10.204
20.5,9.816
20.504,9.26
20.508,8.804
20.512,8.484
20.516,8.352
20.52,8.256
20.524,8.272
20.528,8.328
20.532,8.268
20.536,8.172
20.54,8.14
20.544,8.188
20.548,8.188
20.552,8.132
20.556,8.104
20.56,8.152
20.564,8.18
20.568,8.108
20.572,8.06
20.576,8.14
20.58,8.18
20.584,8.132
20.588,8.088
20.592,8.116
20.596,8.196
20.6,8.188
20.604,8.104
20.608,8.116
20.612,8.188
20.616,8.176
20.62,8.128
20.624,8.148
20.628,8.216
20.632,8.208
20.636,8.164
20.64,8.18
20.644,8.192
20.648,8.224
20.652,8.172
20.656,8.168
20.66,8.232
20.664,8.248
20.668,8.2
20.672,8.18
20.676,8.228
20.68,8.284
20.684,8.248
20.688,8.224
20.692,8.24
20.696,8.328
20.7,8.308
20.704,8.256
20.708,8.308
20.712,8.364
20.716,8.312
20.72,8.284
20.724,8.344
20.728,8.424
20.732,8.44
20.736,8.384
20.74,8.396
20.744,8.504
20.748,8.532
20.752,8.508
20.756,8.52
20.76,8.612
20.764,8.636
20.768,8.624
20.772,8.62
20.776,8.684
20.78,8.744
20.784,8.712
20.788,8.68
20.792,8.724
20.796,8.8
20.8,8.724
20.804,8.652
20.808,8.664
20.812,8.704
20.816,8.624
20.82,8.512
20.824,8.488
20.828,8.524
20.832,8.472
20.836,8.392
20.84,8.344
20.844,8.348
20.848,8.324
20.852,8.236
20.856,8.204
20.86,8.228
20.864,8.228
20.868,8.204
20.872,8.132
20.876,8.188
20.88,8.232
20.884,8.156
20.888,8.108
20.892,8.144
20.896,8.212
20.9,8.168
20.904,8.124
20.908,8.116
20.912,8.2
20.916,8.176
20.92,8.144
20.924,8.148
20.928,8.212
20.932,8.188
20.936,8.136
20.94,8.148
20.944,8.192
20.948,8.212
20.952,8.136
20.956,8.132
20.96,8.16
20.964,8.2
20.968,8.156
20.972,8.112
20.976,8.164
20.98,8.2
20.984,8.16
20.988,8.124
20.992,8.144
20.996,8.188
21,8.148
21.004,8.12
21.008,8.16
21.012,8.2
21.016,8.184
21.02,8.116
21.024,8.12
21.028,8.196
21.032,8.204
21.036,8.148
21.04,8.124
21.044,8.192
21.048,8.192
21.052,8.16
21.056,8.128
21.06,8.168
21.064,8.196
21.068,8.136
21.072,8.128
21.076,8.132
21.08,8.196
21.084,8.132
21.088,8.088
21.092,8.136
21.096,8.208
21.1,8.148
21.104,8.092
21.108,8.112
21.112,8.152
21.116,8.16
21.12,8.112
21.124,8.104
21.128,8.172
21.132,8.144
21.136,8.12
21.14,8.104
21.144,8.16
21.148,8.176
21.152,8.1
21.156,8.08
21.16,8.164
21.164,8.172
21.168,8.112
21.172,8.056
21.176,8.112
21.18,8.172
21.184,8.128
21.188,8.068
21.192,8.108
21.196,8.172
21.2,8.136
21.204,8.092
21.208,8.124
21.212,8.172
21.216,8.116
21.22,8.068
21.224,8.112
21.228,8.136
21.232,8.168
21.236,8.076
21.24,8.084
21.244,8.148
21.248,8.16
21.252,8.1
21.256,8.076
21.26,8.128
21.264,8.16
21.268,8.116
21.272,8.1
21.276,8.128
21.28,8.156
21.284,8.1
21.288,8.076
21.292,8.12
21.296,8.156
21.3,8.116
21.304,8.072
21.308,8.132
21.312,8.228
21.316,8.2
21.32,8.176
21.324,8.184
21.328,8.276
21.332,8.284
21.336,8.256
21.34,8.292
21.344,8.328
21.348,8.348
21.352,8.28
21.356,8.308
21.36,8.34
21.364,8.376
21.368,8.28
21.372,8.24
21.376,8.304
21.38,8.304
21.384,8.176
21.388,8.076
21.392,8.104
21.396,8.184
21.4,8.108
21.404,8.072
21.408,8.092
21.412,8.16
21.416,8.104
21.42,8.056
21.424,8.072
21.428,8.116
21.432,8.104
21.436,8.06
21.44,8.072
21.444,8.112
21.448,8.076
21.452,7.956
21.456,7.924
21.46,7.916
21.464,8.372
21.468,8.996
21.472,9.868
21.476,10.84
21.48,11.02
21.484,10.388
21.488,9.952
21.492,9.668
21.496,9.212
21.5,8.668
21.504,8.304
21.508,8.248
21.512,8.276
21.516,8.22
21.52,8.2
21.524,8.168
21.528,8.168
21.532,8.16
21.536,8.088
21.54,8.064
21.544,8.124
21.548,8.136
21.552,8.084
21.556,8.068
21.56,8.1
21.564,8.132
21.568,8.084
21.572,8.072
21.576,8.116
21.58,8.136
21.584,8.06
21.588,8.052
21.592,8.092
21.596,8.136
21.6,8.092
21.604,8.044
21.608,8.096
21.612,8.144
21.616,8.148
21.62,8.088
21.624,8.076
21.628,8.136
21.632,8.144
21.636,8.06
21.64,8.072
21.644,8.14
21.648,8.16
21.652,8.116
21.656,8.128
21.66,8.168
21.664,8.188
21.668,8.14
21.672,8.104
21.676,8.168
21.68,8.24
21.684,8.196
21.688,8.148
21.692,8.18
21.696,8.252
21.7,8.228
21.704,8.2
21.708,8.24
21.712,8.308
21.716,8.296
21.72,8.264
21.724,8.296
21.728,8.384
21.732,8.388
21.736,8.364
21.74,8.396
21.744,8.464
21.748,8.488
21.752,8.468
21.756,8.46
21.76,8.516
21.764,8.62
21.768,8.58
21.772,8.548
21.776,8.608
21.78,8.664
21.784,8.616
21.788,8.62
21.792,8.616
21.796,8.64
21.8,8.564
21.804,8.504
21.808,8.488
21.812,8.492
21.816,8.432
21.82,8.34
21.824,8.288
21.828,8.34
21.832,8.28
21.836,8.184
21.84,8.152
21.844,8.204
21.848,8.2
21.852,8.14
21.856,8.088
21.86,8.1
21.864,8.096
21.868,8.056
21.872,8.024
21.876,8.088
21.88,8.128
21.884,8.044
21.888,8
21.892,8.048
21.896,8.112
21.9,8.048
21.904,7.984
21.908,8.04
21.912,8.088
21.916,8.084
21.92,8.024
21.924,8.016
21.928,8.052
21.932,8.052
21.936,8.016
21.94,8.036
21.944,8.076
21.948,8.092
21.952,8.028
21.956,7.992
21.96,8.064
21.964,8.092
21.968,8.032
21.972,7.992
21.976,8.032
21.98,8.092
21.984,8.056
21.988,8.008
21.992,8.004
21.996,8.068
22,8.024
22.004,8
22.008,8.032
22.012,8.052
22.016,8.036
22.02,7.992
22.024,8.008
22.028,8.06
22.032,8.024
22.036,7.996
22.04,7.968
22.044,8.044
22.048,8.048
22.052,7.976
22.056,7.976
22.06,8.016
22.064,8.072
22.068,8.016
22.072,7.988
22.076,8.036
22.08,8.068
22.084,7.996
22.088,7.972
22.092,8.024
22.096,8.092
22.1,8.04
22.104,7.996
22.108,8.028
22.112,8.084
22.116,8.008
22.12,7.956
22.124,7.984
22.128,8.04
22.132,8.056
22.136,7.992
22.14,7.992
22.144,8.04
22.148,8.024
22.152,7.984
22.156,7.98
22.16,8.016
22.164,8.04
22.168,8.012
22.172,7.98
22.176,8.012
22.18,8.044
22.184,8.008
22.188,7.936
22.192,7.964
22.196,8.052
22.2,8.012
22.204,7.964
22.208,7.984
22.212,8.028
22.216,8.02
22.22,7.96
22.224,7.964
22.228,8.032
22.232,7.992
22.236,7.94
22.24,7.964
22.244,7.988
22.248,7.996
22.252,7.948
22.256,7.96
22.26,7.988
22.264,8.032
22.268,7.996
22.272,7.928
22.276,7.992
22.28,8.012
22.284,7.964
22.288,7.956
22.292,8.04
22.296,8.096
22.3,8.052
22.304,8.032
22.308,8.096
22.312,8.164
22.316,8.172
22.32,8.12
22.324,8.156
22.328,8.216
22.332,8.236
22.336,8.176
22.34,8.164
22.344,8.24
22.348,8.196
22.352,8.144
22.356,8.112
22.36,8.144
22.364,8.072
22.368,7.98
22.372,7.928
22.376,7.996
22.38,8.012
22.384,7.968
22.388,7.92
22.392,7.928
22.396,7.96
22.4,7.924
22.404,7.86
22.408,7.88
22.412,7.976
22.416,7.96
22.42,7.904
22.424,7.908
22.428,7.9
22.432,7.852
22.436,7.74
22.44,7.712
22.444,8.228
22.448,9.004
22.452,9.804
22.456,10.664
22.46,10.76
22.464,10.184
22.468,9.78
22.472,9.484
22.476,9.032
22.48,8.636
22.484,8.232
22.488,8.064
22.492,8.108
22.496,8.156
22.5,8.108
22.504,8.028
22.508,7.968
22.512,8.016
22.516,7.972
22.52,7.952
22.524,7.96
22.528,7.988
22.532,7.972
22.536,7.912
22.54,7.924
22.544,7.96
22.548,7.96
22.552,7.916
22.556,7.9
22.56,7.944
22.564,7.996
22.568,7.948
22.572,7.908
22.576,7.96
22.58,7.992
22.584,7.944
22.588,7.872
22.592,7.952
22.596,7.984
22.6,7.956
22.604,7.928
22.608,7.956
22.612,8.028
22.616,7.964
22.62,7.92
22.624,7.928
22.628,8.008
22.632,7.992
22.636,7.936
22.64,7.964
22.644,8.036
22.648,8.02
22.652,8.004
22.656,7.98
22.66,8.032
22.664,8.052
22.668,8.032
22.672,8.024
22.676,8.092
22.68,8.124
22.684,8.084
22.688,8.072
22.692,8.112
22.696,8.184
22.7,8.168
22.704,8.128
22.708,8.192
22.712,8.272
22.716,8.28
22.72,8.26
22.724,8.288
22.728,8.364
22.732,8.36
22.736,8.34
22.74,8.36
22.744,8.444
22.748,8.48
22.752,8.44
22.756,8.468
22.76,8.504
22.764,8.524
22.768,8.452
22.772,8.404
22.776,8.456
22.78,8.48
22.784,8.396
22.788,8.328
22.792,8.292
22.796,8.288
22.8,8.216
22.804,8.12
22.808,8.152
22.812,8.132
22.816,8.1
22.82,7.98
22.824,7.972
22.828,8.048
22.832,7.996
22.836,7.92
22.84,7.908
22.844,7.972
22.848,7.944
22.852,7.916
22.856,7.876
22.86,7.944
22.864,7.952
22.868,7.9
22.872,7.868
22.876,7.936
22.88,7.956
22.884,7.9
22.888,7.9
22.892,7.932
22.896,7.944
22.9,7.908
22.904,7.876
22.908,7.916
22.912,7.948
22.916,7.924
22.92,7.872
22.924,7.896
22.928,7.952
22.932,7.928
22.936,7.872
22.94,7.852
22.944,7.904
22.948,7.928
22.952,7.876
22.956,7.872
22.96,7.932
22.964,7.952
22.968,7.884
22.972,7.856
22.976,7.9
22.98,7.928
22.984,7.888
22.988,7.82
22.992,7.868
22.996,7.912
23,7.892
23.004,7.82
23.008,7.84
23.012,7.884
23.016,7.888
23.02,7.848
23.024,7.852
23.028,7.86
23.032,7.908
23.036,7.856
23.04,7.852
23.044,7.908
23.048,7.924
23.052,7.852
23.056,7.86
23.06,7.908
23.064,7.94
23.068,7.884
23.072,7.852
23.076,7.908
23.08,7.932
23.084,7.912
23.088,7.86
23.092,7.9
23.096,7.908
23.1,7.892
23.104,7.856
23.108,7.904
23.112,7.972
23.116,7.908
23.12,7.844
23.124,7.876
23.128,7.964
23.132,7.892
23.136,7.852
23.14,7.86
23.144,7.92
23.148,7.912
23.152,7.86
23.156,7.836
23.16,7.88
23.164,7.936
23.168,7.852
23.172,7.844
23.176,7.896
23.18,7.916
23.184,7.848
23.188,7.84
23.192,7.864
23.196,7.936
23.2,7.868
23.204,7.82
23.208,7.852
23.212,7.94
23.216,7.876
23.22,7.828
23.224,7.852
23.228,7.92
23.232,7.912
23.236,7.88
23.24,7.892
23.244,7.944
23.248,7.932
23.252,7.844
23.256,7.836
23.26,7.892
23.264,7.932
23.268,7.884
23.272,7.888
23.276,7.964
23.28,8.036
23.284,7.996
23.288,7.96
23.292,8.076
23.296,8.14
23.3,8.072
23.304,8.036
23.308,8.08
23.312,8.16
23.316,8.116
23.32,8.068
23.324,8.068
23.328,8.104
23.332,8.088
23.336,8.008
23.34,7.948
23.344,7.992
23.348,7.956
23.352,7.88
23.356,7.848
23.36,7.888
23.364,7.916
23.368,7.872
23.372,7.804
23.376,7.856
23.38,7.892
23.384,7.828
23.388,7.796
23.392,7.856
23.396,7.892
23.4,7.856
23.404,7.772
23.408,7.724
23.412,7.8
23.416,7.676
23.42,8
23.424,8.712
23.428,9.72
23.432,10.68
23.436,10.92
23.44,10.348
23.444,9.948
23.448,9.604
23.452,9.056
23.456,8.556
23.46,8.26
23.464,8.136
23.468,8.056
23.472,8
23.476,8.076
23.48,8.032
23.484,7.928
23.488,7.836
23.492,7.864
23.496,7.94
23.5,7.884
23.504,7.82
23.508,7.844
23.512,7.956
23.516,7.908
23.52,7.856
23.524,7.864
23.528,7.948
23.532,7.912
23.536,7.856
23.54,7.844
23.544,7.904
23.548,7.916
23.552,7.848
23.556,7.868
23.56,7.944
23.564,7.936
23.568,7.9
23.572,7.872
23.576,7.904
23.58,7.968
23.584,7.888
23.588,7.884
23.592,7.92
23.596,7.968
23.6,7.904
23.604,7.916
23.608,7.904
23.612,8.012
23.616,7.94
23.62,7.88
23.624,7.912
23.628,8.012
23.632,7.964
23.636,7.944
23.64,7.984
23.644,8.036
23.648,8.036
23.652,7.984
23.656,7.988
23.66,8.04
23.664,8.084
23.668,8.056
23.672,8.048
23.676,8.12
23.68,8.188
23.684,8.152
23.688,8.14
23.692,8.212
23.696,8.296
23.7,8.268
23.704,8.252
23.708,8.308
23.712,8.4
23.716,8.364
23.72,8.34
23.724,8.388
23.728,8.46
23.732,8.468
23.736,8.424
23.74,8.424
23.744,8.48
23.748,8.48
23.752,8.4
23.756,8.384
23.76,8.396
23.764,8.388
23.768,8.272
23.772,8.232
23.776,8.216
23.78,8.228
23.784,8.1
23.788,8.032
23.792,8.064
23.796,8.076
23.8,8.004
23.804,7.896
23.808,7.94
23.812,8
23.816,7.928
23.82,7.888
23.824,7.9
23.828,7.94
23.832,7.904
23.836,7.86
23.84,7.888
23.844,7.972
23.848,7.932
23.852,7.852
23.856,7.868
23.86,7.932
23.864,7.96
23.868,7.884
23.872,7.864
23.876,7.916
23.88,7.952
23.884,7.916
23.888,7.872
23.892,7.904
23.896,7.944
23.9,7.936
23.904,7.848
23.908,7.932
23.912,7.988
23.916,7.936
23.92,7.872
23.924,7.908
23.928,7.988
23.932,7.948
23.936,7.932
23.94,7.912
23.944,7.996
23.948,7.984
23.952,7.912
23.956,7.892
23.96,7.948
23.964,7.98
23.968,7.932
23.972,7.892
23.976,7.972
23.98,8.004
23.984,7.94
23.988,7.884
23.992,7.948
23.996,8.008
24,7.944
24.004,7.868
24.008,7.936
24.012,8.02
24.016,7.964
24.02,7.9
24.024,7.896
24.028,7.968
24.032,7.944
24.036,7.912
24.04,7.912
24.044,7.976
24.048,7.952
24.052,7.88
24.056,7.908
24.06,7.944
24.064,7.96
24.068,7.912
24.072,7.856
24.076,7.928
24.08,7.988
24.084,7.916
24.088,7.864
24.092,7.904
24.096,7.988
24.1,7.908
24.104,7.868
24.108,7.92
24.112,8.004
24.116,7.936
24.12,7.872
24.124,7.916
24.128,7.972
24.132,7.952
24.136,7.884
24.14,7.896
24.144,7.956
24.148,7.992
24.152,7.908
24.156,7.884
24.16,7.964
24.164,8.012
24.168,7.928
24.172,7.932
24.176,7.988
24.18,8.032
24.184,7.988
24.188,7.956
24.192,7.984
24.196,8.016
24.2,7.968
24.204,7.944
24.208,7.984
24.212,8.024
24.216,7.972
24.22,7.936
24.224,7.92
24.228,8.036
24.232,8.004
24.236,7.94
24.24,7.936
24.244,8.008
24.248,8.02
24.252,7.956
24.256,7.968
24.26,8.012
24.264,8.032
24.268,7.944
24.272,7.952
24.276,8.024
24.28,8.076
24.284,8.008
24.288,7.98
24.292,8.08
24.296,8.148
24.3,8.088
24.304,8.076
24.308,8.112
24.312,8.236
24.316,8.208
24.32,8.168
24.324,8.18
24.328,8.272
24.332,8.252
24.336,8.184
24.34,8.188
24.344,8.256
24.348,8.232
24.352,8.164
24.356,8.16
24.36,8.176
24.364,8.144
24.368,8.048
24.372,8.008
24.376,8.068
24.38,8.108
24.384,8.024
24.388,7.988
24.392,8.012
24.396,8.072
24.4,8.024
24.404,7.984
24.408,8
24.412,8.104
24.416,8.056
24.42,7.956
24.424,7.952
24.428,7.96
24.432,7.944
24.436,7.812
24.44,8.104
24.444,8.832
24.448,9.756
24.452,10.644
24.456,11.068
24.46,10.568
24.464,10.108
24.468,9.72
24.472,9.2
24.476,8.792
24.48,8.44
24.484,8.232
24.488,8.184
24.492,8.22
24.496,8.264
24.5,8.14
24.504,8.068
24.508,8.056
24.512,8.136
24.516,8.072
24.52,8.012
24.524,8.008
24.528,8.096
24.532,8.072
24.536,7.992
24.54,8.004
24.544,8.064
24.548,8.06
24.552,8.016
24.556,8.02
24.56,8.048
24.564,8.076
24.568,8.02
24.572,8
24.576,8.028
24.58,8.108
24.584,8.028
24.588,7.992
24.592,8.04
24.596,8.088
24.6,8.044
24.604,7.992
24.608,8.028
24.612,8.104
24.616,8.08
24.62,8.012
24.624,8.048
24.628,8.116
24.632,8.104
24.636,8.024
24.64,8.06
24.644,8.124
24.648,8.116
24.652,8.072
24.656,8.1
24.66,8.16
24.664,8.196
24.668,8.124
24.672,8.12
24.676,8.172
24.68,8.232
24.684,8.192
24.688,8.188
24.692,8.252
24.696,8.316
24.7,8.268
24.704,8.252
24.708,8.312
24.712,8.424
24.716,8.384
24.72,8.332
24.724,8.4
24.728,8.476
24.732,8.508
24.736,8.444
24.74,8.444
24.744,8.56
24.748,8.584
24.752,8.52
24.756,8.56
24.76,8.604
24.764,8.624
24.768,8.544
24.772,8.516
24.776,8.544
24.78,8.548
24.784,8.448
24.788,8.376
24.792,8.392
24.796,8.42
24.8,8.296
24.804,8.196
24.808,8.192
24.812,8.228
24.816,8.168
24.82,8.072
24.824,8.036
24.828,8.124
24.832,8.084
24.836,8.004
24.84,7.984
24.844,8.068
24.848,8.048
24.852,7.98
24.856,7.984
24.86,8.016
24.864,8.048
24.868,7.96
24.872,7.956
24.876,7.964
24.88,8.072
24.884,7.98
24.888,7.964
24.892,7.992
24.896,8.056
24.9,8
24.904,7.98
24.908,7.992
24.912,8.06
24.916,8
24.92,7.984
24.924,8.004
24.928,8.084
24.932,8.032
24.936,7.968
24.94,7.988
24.944,8.076
24.948,8.08
24.952,8.012
24.956,8.008
24.96,8.088
24.964,8.076
24.968,8.032
24.972,8.02
24.976,8.052
24.98,8.108
24.984,8.024
24.988,8.02
24.992,8.04
24.996,8.084
25,8.04
25.004,7.976
25.008,8.032
25.012,8.104
25.016,8.036
25.02,7.968
25.024,8.008
25.028,8.088
25.032,8.052
25.036,7.976
25.04,7.996
25.044,8.064
25.048,8.052
25.052,8.024
25.056,8
25.06,8.04
25.064,8.072
25.068,8
25.072,7.964
25.076,8.044
25.08,8.08
25.084,7.968
25.088,7.984
25.092,8.024
25.096,8.076
25.1,8.028
25.104,7.976
25.108,8.016
25.112,8.06
25.116,8.044
25.12,7.976
25.124,7.996
25.128,8.048
25.132,8.016
25.136,7.984
25.14,7.988
25.144,8.048
25.148,8.048
25.152,7.984
25.156,7.972
25.16,8.052
25.164,8.06
25.168,7.992
25.172,7.96
25.176,8.004
25.18,8.028
25.184,7.992
25.188,7.984
25.192,7.996
25.196,8.064
25.2,8.024
25.204,7.972
25.208,8.016
25.212,8.044
25.216,8.036
25.22,7.976
25.224,8.008
25.228,8.084
25.232,8.056
25.236,7.992
25.24,7.976
25.244,8.064
25.248,8.068
25.252,8.008
25.256,7.992
25.26,8.052
25.264,8.064
25.268,8.016
25.272,7.984
25.276,8.052
25.28,8.064
25.284,8.024
25.288,8.008
25.292,8.044
25.296,8.096
25.3,8.024
25.304,7.976
25.308,8
25.312,8.092
25.316,8.096
25.32,8.048
25.324,8.088
25.328,8.156
25.332,8.16
25.336,8.144
25.34,8.156
25.344,8.252
25.348,8.264
25.352,8.184
25.356,8.216
25.36,8.268
25.364,8.3
25.368,8.232
25.372,8.196
25.376,8.22
25.38,8.248
25.384,8.184
25.388,8.076
25.392,8.068
25.396,8.1
25.4,8.04
25.404,7.98
25.408,8.008
25.412,8.064
25.416,7.992
25.42,7.964
25.424,7.972
25.428,8.048
25.432,8.004
25.436,7.936
25.44,7.94
25.444,8.016
25.448,8.036
25.452,7.92
25.456,7.856
25.46,7.904
25.464,7.892
25.468,7.888
25.472,8.392
25.476,9.224
25.48,10.188
25.484,10.948
25.488,10.604
25.492,10.112
25.496,9.808
25.5,9.352
25.504,8.812
25.508,8.4
25.512,8.22
25.516,8.144
25.52,8.096
25.524,8.128
25.528,8.168
25.532,8.068
25.536,8
25.54,7.98
25.544,8.02
25.548,8.064
25.552,7.96
25.556,7.98
25.56,8.012
25.564,8.052
25.568,7.976
25.572,7.976
25.576,8.004
25.58,8.056
25.584,7.98
25.588,7.944
25.592,8.012
25.596,8.068
25.6,8
25.604,7.956
25.608,8.012
25.612,8.088
25.616,8.04
25.62,7.988
25.624,8.016
25.628,8.096
25.632,8.06
25.636,8.004
25.64,8.02
25.644,8.108
25.648,8.088
25.652,8.02
25.656,8.044
25.66,8.128
25.664,8.112
25.668,8.076
25.672,8.068
25.676,8.12
25.68,8.168
25.684,8.116
25.688,8.084
25.692,8.144
25.696,8.18
25.7,8.192
25.704,8.156
25.708,8.188
25.712,8.268
25.716,8.248
25.72,8.208
25.724,8.272
25.728,8.324
25.732,8.328
25.736,8.284
25.74,8.316
25.744,8.444
25.748,8.46
25.752,8.392
25.756,8.432
25.76,8.484
25.764,8.568
25.768,8.524
25.772,8.52
25.776,8.588
25.78,8.628
25.784,8.6
25.788,8.592
25.792,8.64
25.796,8.672
25.8,8.596
25.804,8.54
25.808,8.556
25.812,8.576
25.816,8.504
25.82,8.4
25.824,8.38
25.828,8.404
25.832,8.36
25.836,8.252
25.84,8.224
25.844,8.268
25.848,8.224
25.852,8.132
25.856,8.12
25.86,8.136
25.864,8.164
25.868,8.092
25.872,8.06
25.876,8.104
25.88,8.144
25.884,8.068
25.888,8.016
25.892,8.084
25.896,8.148
25.9,8.072
25.904,8.008
25.908,8.056
25.912,8.144
25.916,8.112
25.92,8.044
25.924,8.06
25.928,8.12
25.932,8.124
25.936,8.044
25.94,8.056
25.944,8.132
25.948,8.14
25.952,8.068
25.956,8.072
25.96,8.116
25.964,8.156
25.968,8.064
25.972,8.084
25.976,8.104
25.98,8.172
25.984,8.116
25.988,8.06
25.992,8.092
25.996,8.14
26,8.116
26.004,8.084
26.008,8.108
26.012,8.16
26.016,8.136
26.02,8.06
26.024,8.084
26.028,8.16
26.032,8.108
26.036,8.056
26.04,8.068
26.044,8.132
26.048,8.128
26.052,8.044
26.056,8.032
26.06,8.104
26.064,8.108
26.068,8.036
26.072,8.056
26.076,8.068
26.08,8.14
26.084,8.06
26.088,8.04
26.092,8.08
26.096,8.112
26.1,8.076
26.104,8.024
26.108,8.064
26.112,8.104
26.116,8.12
26.12,8.02
26.124,8.06
26.128,8.116
26.132,8.104
26.136,8.044
26.14,8.052
26.144,8.096
26.148,8.104
26.152,8.032
26.156,8.024
26.16,8.1
26.164,8.12
26.168,8.06
26.172,8.016
26.176,8.064
26.18,8.104
26.184,8.044
26.188,8.008
26.192,8.048
26.196,8.104
26.2,8.06
26.204,8.016
26.208,8.032
26.212,8.08
26.216,8.072
26.22,8.008
26.224,8.052
26.228,8.06
26.232,8.064
26.236,7.992
26.24,8.008
26.244,8.092
26.248,8.048
26.252,7.996
26.256,8.012
26.26,8.076
26.264,8.072
26.268,8.028
26.272,8.02
26.276,8.04
26.28,8.096
26.284,8.048
26.288,8
26.292,8.032
26.296,8.076
26.3,8.02
26.304,7.972
26.308,8.012
26.312,8.048
26.316,8.02
26.32,7.972
26.324,8.024
26.328,8.128
26.332,8.108
26.336,8.036
26.34,8.068
26.344,8.152
26.348,8.192
26.352,8.14
26.356,8.144
26.36,8.22
26.364,8.248
26.368,8.216
26.372,8.192
26.376,8.232
26.38,8.248
26.384,8.156
26.388,8.132
26.392,8.188
26.396,8.176
26.4,8.072
26.404,7.984
26.408,8.028
26.412,8.068
26.416,8.064
26.42,7.956
26.424,7.976
26.428,8.032
26.432,8.024
26.436,7.952
26.44,7.968
26.444,8.024
26.448,8.016
26.452,7.944
26.456,7.964
26.46,8.016
26.464,7.944
26.468,7.844
26.472,7.788
26.476,7.828
26.48,8.308
26.484,8.972
26.488,9.808
26.492,10.772
26.496,10.9
26.5,10.268
26.504,9.836
26.508,9.584
26.512,9.112
26.516,8.616
26.52,8.252
26.524,8.16
26.528,8.216
26.532,8.16
26.536,8.096
26.54,8.068
26.544,8.088
26.548,8.084
26.552,7.984
26.556,7.952
26.56,8.036
26.564,8.052
26.568,7.98
26.572,7.908
26.576,7.996
26.58,8.036
26.584,7.992
26.588,7.984
26.592,7.992
26.596,8.064
26.6,7.988
26.604,7.956
26.608,8.02
26.612,8.076
26.616,8.052
26.62,7.956
26.624,8
26.628,8.076
26.632,8.052
26.636,7.996
26.64,7.98
26.644,8.04
26.648,8.064
26.652,8
26.656,7.996
26.66,8.072
26.664,8.072
26.668,8.028
26.672,8.032
26.676,8.068
26.68,8.116
26.684,8.048
26.688,8.024
26.692,8.1
26.696,8.164
26.7,8.14
26.704,8.068
26.708,8.144
26.712,8.172
26.716,8.192
26.72,8.128
26.724,8.148
26.728,8.26
26.732,8.24
26.736,8.192
26.74,8.228
26.744,8.308
26.748,8.34
26.752,8.268
26.756,8.312
26.76,8.404
26.764,8.416
26.768,8.36
26.772,8.38
26.776,8.464
26.78,8.536
26.784,8.488
26.788,8.448
26.792,8.48
26.796,8.568
26.8,8.56
26.804,8.484
26.808,8.508
26.812,8.536
26.816,8.468
26.82,8.372
26.824,8.376
26.828,8.424
26.832,8.344
26.836,8.248
26.84,8.212
26.844,8.268
26.848,8.224
26.852,8.116
26.856,8.06
26.86,8.128
26.864,8.124
26.868,8.068
26.872,8.036
26.876,8.048
26.88,8.096
26.884,8.028
26.888,7.968
26.892,8.008
26.896,8.032
26.9,8.032
26.904,7.956
26.908,8.024
26.912,8.072
26.916,8.064
26.92,8.004
26.924,8.02
26.928,8.056
26.932,8.052
26.936,8.004
26.94,8.004
26.944,8.052
26.948,8.056
26.952,7.996
26.956,8
26.96,8.044
26.964,8.1
26.968,8.004
26.972,8.004
26.976,8.032
26.98,8.068
26.984,8.008
26.988,7.984
26.992,8
26.996,8.064
27,8.012
27.004,7.976
27.008,8.008
27.012,8.036
27.016,8.036
27.02,7.96
27.024,7.96
27.028,8.048
27.032,8.016
27.036,7.928
27.04,7.964
27.044,8.02
27.048,8.04
27.052,7.976
27.056,7.952
27.06,8.032
27.064,8.032
27.068,7.968
27.072,7.936
27.076,7.972
27.08,8.012
27.084,7.968
27.088,7.92
27.092,7.956
27.096,7.992
27.1,7.964
27.104,7.904
27.108,7.968
27.112,8.004
27.116,7.956
27.12,7.9
27.124,7.916
27.128,7.992
27.132,8.004
27.136,7.904
27.14,7.948
27.144,8.02
27.148,8.008
27.152,7.948
27.156,7.944
27.16,7.996
27.164,7.988
27.168,7.92
27.172,7.928
27.176,7.968
27.18,8
27.184,7.952
27.188,7.928
27.192,7.964
27.196,7.988
27.2,7.992
27.204,7.944
27.208,7.98
27.212,8.016
27.216,7.984
27.22,7.912
27.224,7.948
27.228,8.012
27.232,8.004
27.236,7.92
27.24,7.952
27.244,7.996
27.248,7.976
27.252,7.92
27.256,7.928
27.26,8
27.264,8
27.268,7.928
27.272,7.896
27.276,7.98
27.28,8.004
27.284,7.948
27.288,7.892
27.292,7.944
27.296,7.996
27.3,7.952
27.304,7.896
27.308,7.952
27.312,8.04
27.316,8.032
27.32,8.004
27.324,8.06
27.328,8.124
27.332,8.104
27.336,8.04
27.34,8.12
27.344,8.192
27.348,8.164
27.352,8.116
27.356,8.112
27.36,8.18
27.364,8.184
27.368,8.104
27.372,8.084
27.376,8.136
27.38,8.076
27.384,7.952
27.388,7.916
27.392,7.96
27.396,7.968
27.4,7.876
27.404,7.84
27.408,7.88
27.412,7.952
27.416,7.916
27.42,7.832
27.424,7.88
27.428,7.952
27.432,7.944
27.436,7.86
27.44,7.848
27.444,7.84
27.448,7.796
27.452,7.708
27.456,7.62
27.46,7.948
27.464,8.64
27.468,9.468
27.472,10.428
27.476,11.036
27.48,10.568
27.484,9.968
27.488,9.584
27.492,9.184
27.496,8.712
27.5,8.252
27.504,8.004
27.508,8.04
27.512,8.104
27.516,8.092
27.52,7.984
27.524,7.908
27.528,7.944
27.532,7.924
27.536,7.88
27.54,7.904
27.544,7.932
27.548,7.924
27.552,7.86
27.556,7.856
27.56,7.936
27.564,7.94
27.568,7.896
27.572,7.892
27.576,7.92
27.58,7.924
27.584,7.9
27.588,7.884
27.592,7.912
27.596,7.952
27.6,7.928
27.604,7.856
27.608,7.912
27.612,7.96
27.616,7.948
27.62,7.896
27.624,7.92
27.628,7.98
27.632,7.984
27.636,7.908
27.64,7.928
27.644,7.996
27.648,8.004
27.652,7.944
27.656,7.936
27.66,7.996
27.664,8.024
27.668,7.984
27.672,7.956
27.676,8.016
27.68,8.048
27.684,8.036
27.688,8.008
27.692,8.096
27.696,8.12
27.7,8.076
27.704,8.068
27.708,8.096
27.712,8.184
27.716,8.18
27.72,8.108
27.724,8.164
27.728,8.264
27.732,8.268
27.736,8.228
27.74,8.26
27.744,8.336
27.748,8.344
27.752,8.332
27.756,8.34
27.76,8.4
27.764,8.44
27.768,8.388
27.772,8.412
27.776,8.492
27.78,8.524
27.784,8.46
27.788,8.408
27.792,8.416
27.796,8.472
27.8,8.384
27.804,8.32
27.808,8.296
27.812,8.344
27.816,8.288
27.82,8.192
27.824,8.14
27.828,8.156
27.832,8.108
27.836,8.012
27.84,7.972
27.844,8.076
27.848,8.024
27.852,7.94
27.856,7.92
27.86,7.988
27.864,7.98
27.868,7.932
27.872,7.892
27.876,7.916
27.88,7.968
27.884,7.92
27.888,7.916
27.892,7.952
27.896,7.988
27.9,7.98
27.904,7.908
27.908,7.952
27.912,7.992
27.916,7.944
27.92,7.896
27.924,7.928
27.928,7.988
27.932,7.98
27.936,7.932
27.94,7.948
27.944,7.988
27.948,8.008
27.952,7.916
27.956,7.936
27.96,7.992
27.964,7.996
27.968,7.956
27.972,7.928
27.976,7.976
27.98,7.996
27.984,7.96
27.988,7.916
27.992,7.968
27.996,7.972
28,7.968
28.004,7.888
28.008,7.928
28.012,7.976
28.016,7.972
28.02,7.892
28.024,7.932
28.028,7.972
28.032,7.94
28.036,7.896
28.04,7.908
28.044,7.952
28.048,7.948
28.052,7.9
28.056,7.928
28.06,7.992
28.064,8.004
28.068,7.94
28.072,7.904
28.076,7.972
28.08,7.996
28.084,7.92
28.088,7.884
28.092,7.964
28.096,7.988
28.1,7.972
28.104,7.88
28.108,7.924
28.112,7.976
28.116,7.936
28.12,7.9
28.124,7.928
28.128,7.976
28.132,7.956
28.136,7.904
28.14,7.924
28.144,7.972
28.148,7.956
28.152,7.904
28.156,7.868
28.16,7.928
28.164,7.956
28.168,7.944
28.172,7.912
28.176,7.94
28.18,7.972
28.184,7.936
28.188,7.896
28.192,7.952
28.196,7.968
28.2,7.952
28.204,7.908
28.208,7.928
28.212,7.992
28.216,7.992
28.22,7.924
28.224,7.944
28.228,7.988
28.232,8
28.236,7.932
28.24,7.908
28.244,7.984
28.248,7.94
28.252,7.936
28.256,7.92
28.26,7.944
28.264,7.96
28.268,7.924
28.272,7.888
28.276,7.968
28.28,7.98
28.284,7.912
28.288,7.896
28.292,7.936
28.296,7.976
28.3,7.936
28.304,7.904
28.308,7.972
28.312,8.044
28.316,8.048
28.32,8.004
28.324,8.04
28.328,8.108
28.332,8.112
28.336,8.104
28.34,8.12
28.344,8.188
28.348,8.14
28.352,8.124
28.356,8.116
28.36,8.192
28.364,8.164
28.368,8.108
28.372,8.076
28.376,8.14
28.38,8.108
28.384,7.976
28.388,7.908
28.392,7.936
28.396,8
28.4,7.936
28.404,7.896
28.408,7.916
28.412,7.932
28.416,7.916
28.42,7.856
28.424,7.904
28.428,7.952
28.432,7.928
28.436,7.872
28.44,7.86
28.444,7.912
28.448,7.852
28.452,7.744
28.456,7.708
28.46,8.028
28.464,8.68
28.468,9.532
28.472,10.5
28.476,11.128
28.48,10.6
28.484,10.016
28.488,9.636
28.492,9.192
28.496,8.728
28.5,8.276
28.504,8.064
28.508,8.096
28.512,8.128
28.516,8.1
28.52,7.992
28.524,8.004
28.528,8.032
28.532,8.012
28.536,7.916
28.54,7.924
28.544,7.972
28.548,7.952
28.552,7.912
28.556,7.908
28.56,7.968
28.564,7.972
28.568,7.908
28.572,7.884
28.576,7.96
28.58,8.004
28.584,7.956
28.588,7.9
28.592,7.948
28.596,8.012
28.6,7.98
28.604,7.924
28.608,7.952
28.612,8.012
28.616,7.992
28.62,7.916
28.624,7.944
28.628,8.004
28.632,8.012
28.636,7.932
28.64,7.972
28.644,8.036
28.648,8.02
28.652,7.98
28.656,8.012
28.66,8.056
28.664,8.068
28.668,8.016
28.672,8.028
28.676,8.056
28.68,8.092
28.684,8.092
28.688,8.06
28.692,8.12
28.696,8.164
28.7,8.164
28.704,8.116
28.708,8.184
28.712,8.228
28.716,8.2
28.72,8.136
28.724,8.24
28.728,8.324
28.732,8.32
28.736,8.292
28.74,8.324
28.744,8.38
28.748,8.436
28.752,8.4
28.756,8.384
28.76,8.468
28.764,8.48
28.768,8.452
28.772,8.452
28.776,8.544
28.78,8.544
28.784,8.52
28.788,8.46
28.792,8.516
28.796,8.52
28.8,8.444
28.804,8.352
28.808,8.336
28.812,8.356
28.816,8.284
28.82,8.168
28.824,8.168
28.828,8.192
28.832,8.14
28.836,8.04
28.84,8.052
28.844,8.1
28.848,8.044
28.852,7.988
28.856,7.96
28.86,8.016
28.864,8.004
28.868,7.956
28.872,7.924
28.876,8.012
28.88,8.04
28.884,7.988
28.888,7.932
28.892,7.98
28.896,8.016
28.9,7.988
28.904,7.936
28.908,7.952
28.912,8.024
28.916,7.984
28.92,7.956
28.924,7.972
28.928,8.032
28.932,8.016
28.936,7.948
28.94,7.972
28.944,8.048
28.948,8.016
28.952,7.952
28.956,7.96
28.96,8.044
28.964,8.04
28.968,7.996
28.972,7.968
28.976,8.016
28.98,8.036
28.984,8
28.988,7.956
28.992,7.992
28.996,8.036
29,7.988
29.004,7.964
29.008,8.004
29.012,8.048
29.016,8.02
29.02,7.944
29.024,7.948
29.028,8.02
29.032,8.012
29.036,7.936
29.04,7.928
29.044,7.992
29.048,8.02
29.052,7.948
29.056,7.936
29.06,8.024
29.064,7.988
29.068,7.96
29.072,7.932
29.076,7.984
29.08,7.992
29.084,7.936
29.088,7.92
29.092,7.988
29.096,8.024
29.1,7.96
29.104,7.932
29.108,7.96
29.112,7.988
29.116,7.964
29.12,7.924
29.124,7.96
29.128,8.016
29.132,7.976
29.136,7.952
29.14,7.98
29.144,8.028
29.148,8
29.152,7.964
29.156,7.948
29.16,8.008
29.164,8.02
29.168,7.968
29.172,7.936
29.176,7.996
29.18,8.036
29.184,7.988
29.188,7.952
29.192,7.98
29.196,8.036
29.2,7.992
29.204,7.956
29.208,7.972
29.212,8.032
29.216,7.98
29.22,7.94
29.224,7.988
29.228,8.02
29.232,8.012
29.236,7.944
29.24,7.968
29.244,8.02
29.248,8.024
29.252,7.96
29.256,7.932
29.26,8.008
29.264,8.024
29.268,7.992
29.272,7.956
29.276,7.992
29.28,8.016
29.284,7.976
29.288,7.936
29.292,7.968
29.296,8.012
29.3,7.988
29.304,7.936
29.308,7.968
29.312,8.036
29.316,8.048
29.32,8.016
29.324,8.056
29.328,8.124
29.332,8.112
29.336,8.08
29.34,8.084
29.344,8.192
29.348,8.192
29.352,8.18
29.356,8.152
29.36,8.212
29.364,8.212
29.368,8.176
29.372,8.18
29.376,8.196
29.38,8.192
29.384,8.152
29.388,8.096
29.392,8.064
29.396,8.06
29.4,8.016
29.404,7.984
29.408,7.988
29.412,8.032
29.416,8
29.42,7.948
29.424,7.956
29.428,8.02
29.432,7.98
29.436,7.924
29.44,7.964
29.444,8.02
29.448,8.004
29.452,7.928
29.456,7.852
29.46,7.88
29.464,7.852
29.468,7.844
29.472,8.304
29.476,9.116
29.48,10.096
29.484,10.94
29.488,10.772
29.492,10.212
29.496,9.828
29.5,9.42
29.504,8.864
29.508,8.448
29.512,8.232
29.516,8.168
29.52,8.076
29.524,8.112
29.528,8.188
29.532,8.096
29.536,8.016
29.54,8
29.544,8.072
29.548,8.032
29.552,8.016
29.556,8
29.56,8.048
29.564,8.044
29.568,8.028
29.572,8.008
29.576,8.048
29.58,8.06
29.584,8.044
29.588,8
29.592,8.068
29.596,8.084
29.6,8.044
29.604,7.996
29.608,8.032
29.612,8.084
29.616,8.072
29.62,8.016
29.624,8.048
29.628,8.104
29.632,8.068
29.636,8.048
29.64,8.072
29.644,8.136
29.648,8.112
29.652,8.064
29.656,8.08
29.66,8.116
29.664,8.152
29.668,8.104
29.672,8.1
29.676,8.144
29.68,8.192
29.684,8.144
29.688,8.132
29.692,8.184
29.696,8.24
29.7,8.212
29.704,8.176
29.708,8.216
29.712,8.272
29.716,8.268
29.72,8.236
29.724,8.284
29.728,8.36
29.732,8.348
29.736,8.332
29.74,8.328
29.744,8.436
29.748,8.432
29.752,8.384
29.756,8.416
29.76,8.48
29.764,8.552
29.768,8.52
29.772,8.504
29.776,8.56
29.78,8.596
29.784,8.576
29.788,8.56
29.792,8.628
29.796,8.632
29.8,8.576
29.804,8.516
29.808,8.536
29.812,8.536
29.816,8.44
29.82,8.356
29.824,8.352
29.828,8.384
29.832,8.312
29.836,8.228
29.84,8.196
29.844,8.248
29.848,8.172
29.852,8.12
29.856,8.088
29.86,8.144
29.864,8.116
29.868,8.04
29.872,8.04
29.876,8.08
29.88,8.076
29.884,8.036
29.888,8.02
29.892,8.068
29.896,8.088
29.9,8.044
29.904,8.008
29.908,8.056
29.912,8.108
29.916,8.076
29.92,8.032
29.924,8.052
29.928,8.108
29.932,8.056
29.936,8.028
29.94,8.064
29.944,8.112
29.948,8.08
29.952,8.036
29.956,8.044
29.96,8.112
29.964,8.116
29.968,8.052
29.972,8.036
29.976,8.096
29.98,8.116
29.984,8.076
29.988,8.016
29.992,8.084
29.996,8.092
30,8.092
30.004,8.016
30.008,8.076
30.012,8.104
30.016,8.052
30.02,8
30.024,8.056
30.028,8.116
30.032,8.076
30.036,8.016
30.04,8.02
30.044,8.068
30.048,8.064
30.052,8.02
30.056,8
30.06,8.068
30.064,8.04
30.068,8.004
30.072,7.988
30.076,8.06
30.08,8.052
30.084,8
30.088,7.996
30.092,8.02
30.096,8.076
30.1,8.02
30.104,7.992
30.108,8.02
30.112,8.052
30.116,8.012
30.12,7.98
30.124,8
30.128,8.064
30.132,8.036
30.136,8
30.14,8.012
30.144,8.072
30.148,8.032
30.152,8.012
30.156,8.004
30.16,8.052
30.164,8.04
30.168,8.036
30.172,8
30.176,8.048
30.18,8.056
30.184,8.02
30.188,7.976
30.192,8.052
30.196,8.068
30.2,8.004
30.204,7.968
30.208,8.024
30.212,8.072
30.216,8.064
30.22,8
30.224,8.032
30.228,8.064
30.232,8.008
30.236,7.976
30.24,8.004
30.244,8.072
30.248,8.012
30.252,7.988
30.256,7.968
30.26,8.048
30.264,8.052
30.268,8
30.272,7.98
30.276,8.044
30.28,8.048
30.284,7.988
30.288,7.98
30.292,8.028
30.296,8.036
30.3,8.032
30.304,8.008
30.308,8.028
30.312,8.048
30.316,8.028
30.32,7.984
30.324,8.012
30.328,8.096
30.332,8.036
30.336,8.004
30.34,8.02
30.344,8.128
30.348,8.112
30.352,8.088
30.356,8.096
30.36,8.172
30.364,8.18
30.368,8.212
30.372,8.2
30.376,8.248
30.38,8.252
30.384,8.2
30.388,8.192
30.392,8.252
30.396,8.26
30.4,8.2
30.404,8.14
30.408,8.164
30.412,8.196
30.416,8.096
30.42,8.024
30.424,8.036
30.428,8.056
30.432,8.036
30.436,7.96
30.44,7.968
30.444,8.008
30.448,8
30.452,7.964
30.456,7.952
30.46,8.016
30.464,8.008
30.468,7.976
30.472,7.952
30.476,7.96
30.48,7.936
30.484,7.852
30.488,7.776
30.492,7.884
30.496,8.484
30.5,9.228
30.504,10.116
30.508,10.964
30.512,10.7
30.516,10.08
30.52,9.712
30.524,9.368
30.528,8.916
30.532,8.428
30.536,8.128
30.54,8.144
30.544,8.18
30.548,8.18
30.552,8.084
30.556,8.044
30.56,8.06
30.564,8.072
30.568,8.008
30.572,7.956
30.576,8.032
30.58,8.024
30.584,8
30.588,7.952
30.592,8.012
30.596,8.064
30.6,8.008
30.604,7.94
30.608,7.976
30.612,8.056
30.616,8.004
30.62,7.956
30.624,7.984
30.628,8.028
30.632,8.012
30.636,7.948
30.64,7.964
30.644,8.012
30.648,8.004
30.652,7.984
30.656,7.976
30.66,8.032
30.664,8.032
30.668,8.016
30.672,7.996
30.676,8.036
30.68,8.056
30.684,8.024
30.688,8.02
30.692,8.08
30.696,8.096
30.7,8.068
30.704,8.048
30.708,8.092
30.712,8.136
30.716,8.112
30.72,8.092
30.724,8.116
30.728,8.18
30.732,8.14
30.736,8.128
30.74,8.148
30.744,8.216
30.748,8.196
30.752,8.204
30.756,8.192
30.76,8.264
30.764,8.276
30.768,8.284
30.772,8.292
30.776,8.396
30.78,8.416
30.784,8.38
30.788,8.368
30.792,8.428
30.796,8.476
30.8,8.468
30.804,8.444
30.808,8.488
30.812,8.544
30.816,8.512
30.82,8.488
30.824,8.496
30.828,8.516
30.832,8.444
30.836,8.372
30.84,8.336
30.844,8.4
30.848,8.308
30.852,8.236
30.856,8.16
30.86,8.192
30.864,8.14
30.868,8.1
30.872,8.052
30.876,8.072
30.88,8.06
30.884,8.032
30.888,7.968
30.892,8.004
30.896,8.012
30.9,7.988
30.904,7.956
30.908,8
30.912,8.032
30.916,7.976
30.92,7.924
30.924,7.948
30.928,8.004
30.932,7.996
30.936,7.948
30.94,7.956
30.944,8.036
30.948,8.024
30.952,7.98
30.956,7.976
30.96,8.016
30.964,8.008
30.968,7.948
30.972,7.964
30.976,8
30.98,8.04
30.984,7.992
30.988,7.952
30.992,8
30.996,8.016
31,7.988
31.004,7.944
31.008,8
31.012,8.024
31.016,7.984
31.02,7.964
31.024,7.964
31.028,8
31.032,7.964
31.036,7.904
31.04,7.94
31.044,8.012
31.048,7.992
31.052,7.952
31.056,7.932
31.06,8.012
31.064,7.988
31.068,7.932
31.072,7.912
31.076,7.948
31.08,7.988
31.084,7.952
31.088,7.928
31.092,7.964
31.096,7.996
31.1,7.944
31.104,7.928
31.108,7.94
31.112,8.012
31.116,7.948
31.12,7.908
31.124,7.944
31.128,7.952
31.132,7.948
31.136,7.936
31.14,7.916
31.144,8.008
31.148,7.984
31.152,7.94
31.156,7.912
31.16,7.956
31.164,7.956
31.168,7.928
31.172,7.94
31.176,7.992
31.18,8.02
31.184,7.928
31.188,7.924
31.192,7.956
31.196,7.976
31.2,7.932
31.204,7.916
31.208,7.944
31.212,8.004
31.216,7.96
31.22,7.912
31.224,7.948
31.228,8.004
31.232,7.992
31.236,7.932
31.24,7.912
31.244,8.004
31.248,7.996
31.252,7.928
31.256,7.932
31.26,7.992
31.264,7.96
31.268,7.88
31.272,7.9
31.276,7.972
31.28,7.956
31.284,7.92
31.288,7.912
31.292,7.952
31.296,8.004
31.3,7.948
31.304,7.892
31.308,7.944
31.312,7.984
31.316,7.948
31.32,7.924
31.324,7.96
31.328,8
31.332,7.984
31.336,7.968
31.34,8.008
31.344,8.1
31.348,8.108
31.352,8.076
31.356,8.084
31.36,8.156
31.364,8.164
31.368,8.104
31.372,8.08
31.376,8.148
31.38,8.168
31.384,8.124
31.388,8.104
31.392,8.128
31.396,8.136
31.4,8.064
31.404,7.956
31.408,7.912
31.412,7.964
31.416,7.88
31.42,7.912
31.424,7.868
31.428,7.944
31.432,7.9
31.436,7.924
31.44,7.868
31.444,7.932
31.448,7.896
31.452,7.92
31.456,7.868
31.46,7.924
31.464,7.92
31.468,7.86
31.472,7.76
31.476,7.768
31.48,7.708
31.484,7.972
31.488,8.64
31.492,9.6
31.496,10.596
31.5,11.012
31.504,10.476
31.508,9.936
31.512,9.712
31.516,9.22
31.52,8.752
31.524,8.3
31.528,8.148
31.532,8.088
31.536,8.104
31.54,8.088
31.544,8.08
31.548,8.028
31.552,7.996
31.556,7.948
31.56,8.028
31.564,7.988
31.568,7.94
31.572,7.928
31.576,7.988
31.58,8
31.584,7.924
31.588,7.928
31.592,7.972
31.596,7.968
31.6,7.924
31.604,7.956
31.608,7.956
31.612,8
31.616,7.908
31.62,7.956
31.624,7.968
31.628,8.004
31.632,7.972
31.636,7.964
31.64,7.928
31.644,8.02
31.648,7.972
31.652,8
31.656,7.952
31.66,8.036
31.664,8.008
31.668,8
31.672,7.972
31.676,8.056
31.68,8.072
31.684,8.012
31.688,8.016
31.692,8.044
31.696,8.068
31.7,8.024
31.704,8.052
31.708,8.088
31.712,8.144
31.716,8.08
31.72,8.136
31.724,8.092
31.728,8.2
31.732,8.116
31.736,8.184
31.74,8.156
31.744,8.24
31.748,8.216
31.752,8.276
31.756,8.264
31.76,8.296
31.764,8.32
31.768,8.316
31.772,8.32
31.776,8.4
31.78,8.448
31.784,8.396
31.788,8.424
31.792,8.472
31.796,8.52
31.8,8.48
31.804,8.5
31.808,8.492
31.812,8.54
31.816,8.476
31.82,8.464
31.824,8.44
31.828,8.44
31.832,8.328
31.836,8.344
31.84,8.26
31.844,8.292
31.848,8.2
31.852,8.176
31.856,8.108
31.86,8.164
31.864,8.112
31.868,8.052
31.872,8.004
31.876,8.028
31.88,8.056
31.884,7.992
31.888,7.984
31.892,8.008
31.896,8.036
31.9,7.956
31.904,7.964
31.908,7.964
31.912,8.032
31.916,7.94
31.92,7.98
31.924,7.964
31.928,8.044
31.932,7.992
31.936,8.004
31.94,7.964
31.944,8.048
31.948,8.02
31.952,8.024
31.956,7.98
31.96,8.044
31.964,8.024
31.968,7.996
31.972,7.968
31.976,8.04
31.98,8.032
31.984,7.964
31.988,8
31.992,8.056
31.996,8.064
32,7.968
32.004,8.008
32.008,8.012
32.012,8.04
32.016,7.984
32.02,7.992
32.024,7.936
32.028,8.004
32.032,7.964
32.036,7.992
32.04,7.976
32.044,8.02
32.048,7.984
32.052,7.976
32.056,7.972
32.06,8.024
32.064,8.008
32.068,7.96
32.072,7.948
32.076,7.996
32.08,8.024
32.084,7.952
32.088,7.964
32.092,8.004
32.096,8.004
32.1,7.936
32.104,7.984
32.108,7.964
32.112,8.016
32.116,7.968
32.12,8.008
32.124,7.984
32.128,8.02
32.132,7.976
32.136,7.98
32.14,7.976
32.144,8.04
32.148,8.012
32.152,8
32.156,7.964
32.16,8.032
32.164,8.028
32.168,7.996
32.172,7.964
32.176,8.004
32.18,8.028
32.184,7.956
32.188,7.984
32.192,8
32.196,8.016
32.2,7.948
32.204,7.98
32.208,7.96
32.212,8.032
32.216,7.964
32.22,7.98
32.224,7.96
32.228,8.004
32.232,7.976
32.236,7.988
32.24,7.948
32.244,8.008
32.248,7.972
32.252,7.968
32.256,7.956
32.26,8
32.264,8
32.268,7.976
32.272,7.976
32.276,8.028
32.28,8
32.284,7.94
32.288,7.988
32.292,8.016
32.296,8.024
32.3,7.924
32.304,7.976
32.308,7.98
32.312,8.016
32.316,7.976
32.32,7.996
32.324,7.948
32.328,8.036
32.332,8.004
32.336,8.076
32.34,8.048
32.344,8.12
32.348,8.124
32.352,8.112
32.356,8.124
32.36,8.244
32.364,8.244
32.368,8.184
32.372,8.16
32.376,8.232
32.38,8.276
32.384,8.204
32.388,8.2
32.392,8.188
32.396,8.224
32.4,8.148
32.404,8.172
32.408,8.068
32.412,8.1
32.416,8.012
32.42,8.056
32.424,8.008
32.428,8.048
32.432,8.004
32.436,8.008
32.44,7.984
32.444,8.032
32.448,8.012
32.452,7.972
32.456,7.964
32.46,7.992
32.464,8.012
32.468,7.908
32.472,7.896
32.476,7.888
32.48,7.852
32.484,7.948
32.488,8.58
32.492,9.468
32.496,10.488
32.5,11.092
32.504,10.724
32.508,10.164
32.512,9.84
32.516,9.296
32.52,8.848
32.524,8.364
32.528,8.244
32.532,8.188
32.536,8.168
32.54,8.164
32.544,8.192
32.548,8.116
32.552,8.056
32.556,8.04
32.56,8.072
32.564,8.084
32.568,7.988
32.572,8.024
32.576,8.048
32.58,8.048
32.584,7.968
32.588,8.024
32.592,8.032
32.596,8.064
32.6,7.996
32.604,8.032
32.608,8.016
32.612,8.044
32.616,8.016
32.62,8.032
32.624,8.024
32.628,8.076
32.632,8.048
32.636,8.032
32.64,8.044
32.644,8.112
32.648,8.068
32.652,8.036
32.656,8.048
32.66,8.096
32.664,8.092
32.668,8.036
32.672,8.088
32.676,8.116
32.68,8.144
32.684,8.06
32.688,8.128
32.692,8.104
32.696,8.16
32.7,8.112
32.704,8.164
32.708,8.16
32.712,8.192
32.716,8.144
32.72,8.176
32.724,8.2
32.728,8.272
32.732,8.236
32.736,8.248
32.74,8.276
32.744,8.332
32.748,8.328
32.752,8.308
32.756,8.324
32.76,8.416
32.764,8.428
32.768,8.388
32.772,8.456
32.776,8.492
32.78,8.504
32.784,8.464
32.788,8.532
32.792,8.576
32.796,8.588
32.8,8.544
32.804,8.6
32.808,8.592
32.812,8.644
32.816,8.576
32.82,8.564
32.824,8.5
32.828,8.52
32.832,8.472
32.836,8.4
32.84,8.336
32.844,8.36
32.848,8.288
32.852,8.236
32.856,8.2
32.86,8.22
32.864,8.156
32.868,8.092
32.872,8.096
32.876,8.136
32.88,8.116
32.884,8.048
32.888,8.072
32.892,8.052
32.896,8.108
32.9,8.04
32.904,8.072
32.908,8.052
32.912,8.116
32.916,8.044
32.92,8.064
32.924,8.076
32.928,8.112
32.932,8.076
32.936,8.072
32.94,8.068
32.944,8.12
32.948,8.1
32.952,8.048
32.956,8.084
32.96,8.12
32.964,8.108
32.968,8.032
32.972,8.08
32.976,8.112
32.98,8.112
32.984,8.04
32.988,8.108
32.992,8.088
32.996,8.12
33,8.044
33.004,8.092
33.008,8.088
33.012,8.136
33.016,8.072
33.02,8.076
33.024,8.056
33.028,8.128
33.032,8.08
33.036,8.04
33.04,8.036
33.044,8.108
33.048,8.072
33.052,8.028
33.056,8.032
33.06,8.092
33.064,8.068
33.068,7.992
33.072,8.028
33.076,8.072
33.08,8.076
33.084,8.008
33.088,8.056
33.092,8.068
33.096,8.084
33.1,8
33.104,8.06
33.108,8.02
33.112,8.096
33.116,8.028
33.12,8.032
33.124,8.008
33.128,8.096
33.132,8.048
33.136,8.032
33.14,8.02
33.144,8.088
33.148,8.064
33.152,8.008
33.156,8.056
33.16,8.096
33.164,8.056
33.168,8.008
33.172,8.048
33.176,8.08
33.18,8.092
33.184,8.008
33.188,8.072
33.192,8.056
33.196,8.08
33.2,8.032
33.204,8.092
33.208,8.056
33.212,8.096
33.216,8.052
33.22,8.048
33.224,8.072
33.228,8.12
33.232,8.056
33.236,8.036
33.24,8.056
33.244,8.092
33.248,8.08
33.252,8.016
33.256,8.056
33.26,8.088
33.264,8.084
33.268,8.02
33.272,8.064
33.276,8.084
33.28,8.076
33.284,8.024
33.288,8.076
33.292,8.06
33.296,8.104
33.3,8.024
33.304,8.092
33.308,8.06
33.312,8.136
33.316,8.052
33.32,8.076
33.324,8.06
33.328,8.112
33.332,8.096
33.336,8.072
33.34,8.124
33.344,8.172
33.348,8.168
33.352,8.152
33.356,8.208
33.36,8.232
33.364,8.24
33.368,8.216
33.372,8.296
33.376,8.292
33.38,8.32
33.384,8.268
33.388,8.296
33.392,8.304
33.396,8.312
33.4,8.224
33.404,8.244
33.408,8.212
33.412,8.196
33.416,8.096
33.42,8.08
33.424,8.112
33.428,8.14
33.432,8.08
33.436,8.052
33.44,8.072
33.444,8.108
33.448,8.076
33.452,7.992
33.456,8.06
33.46,8.096
33.464,8.092
33.468,7.984
33.472,8.04
33.476,8.016
33.48,7.992
33.484,7.896
33.488,7.936
33.492,8.316
33.496,9.02
33.5,9.896
33.504,10.84
33.508,10.952
33.512,10.436
33.516,9.952
33.52,9.62
33.524,9.108
33.528,8.712
33.532,8.336
33.536,8.184
33.54,8.204
33.544,8.26
33.548,8.236
33.552,8.108
33.556,8.124
33.56,8.14
33.564,8.108
33.568,8.032
33.572,8.096
33.576,8.072
33.58,8.088
33.584,8.036
33.588,8.112
33.592,8.104
33.596,8.104
33.6,8.032
33.604,8.096
33.608,8.076
33.612,8.124
33.616,8.06
33.62,8.052
33.624,8.048
33.628,8.092
33.632,8.064
33.636,8.032
33.64,8.04
33.644,8.104
33.648,8.076
33.652,8
33.656,8.064
33.66,8.116
33.664,8.116
33.668,8.024
33.672,8.084
33.676,8.132
33.68,8.132
33.684,8.052
33.688,8.12
33.692,8.12
33.696,8.168
33.7,8.14
33.704,8.152
33.708,8.136
33.712,8.2
33.716,8.172
33.72,8.192
33.724,8.184
33.728,8.256
33.732,8.228
33.736,8.208
33.74,8.26
33.744,8.32
33.748,8.296
33.752,8.244
33.756,8.34
33.76,8.36
33.764,8.392
33.768,8.34
33.772,8.424
33.776,8.452
33.78,8.512
33.784,8.448
33.788,8.508
33.792,8.516
33.796,8.564
33.8,8.512
33.804,8.576
33.808,8.592
33.812,8.636
33.816,8.56
33.82,8.552
33.824,8.556
33.828,8.556
33.832,8.504
33.836,8.42
33.84,8.404
33.844,8.412
33.848,8.348
33.852,8.232
33.856,8.268
33.86,8.22
33.864,8.204
33.868,8.108
33.872,8.164
33.876,8.136
33.88,8.132
33.884,8.04
33.888,8.088
33.892,8.064
33.896,8.084
33.9,8.028
33.904,8.044
33.908,8.032
33.912,8.056
33.916,8.052
33.92,8.024
33.924,8.048
33.928,8.084
33.932,8.028
33.936,8
33.94,8.048
33.944,8.08
33.948,8.056
33.952,7.976
33.956,8.056
33.96,8.088
33.964,8.068
33.968,7.98
33.972,8.068
33.976,8.072
33.98,8.1
33.984,7.996
33.988,8.08
33.992,8.048
33.996,8.08
34,8.008
34.004,8.032
34.008,8.036
34.012,8.072
34.016,8.036
34.02,8.028
34.024,8.056
34.028,8.064
34.032,8.04
34.036,7.984
34.04,8.02
34.044,8.056
34.048,8.028
34.052,7.94
34.056,8
34.06,8.028
34.064,8.008
34.068,7.948
34.072,8.028
34.076,8
34.08,8.032
34.084,7.964
34.088,8.016
34.092,8.008
34.096,8.028
34.1,7.964
34.104,7.988
34.108,7.988
34.112,8.052
34.116,7.984
34.12,7.944
34.124,7.98
34.128,8.044
34.132,8.016
34.136,7.948
34.14,7.996
34.144,8.032
34.148,7.98
34.152,7.92
34.156,8
34.16,8.02
34.164,8.008
34.168,7.948
34.172,8.004
34.176,8.008
34.18,8.02
34.184,7.924
34.188,7.984
34.192,8.024
34.196,8.04
34.2,7.992
34.204,7.984
34.208,7.996
34.212,8.036
34.216,7.984
34.22,7.96
34.224,7.984
34.228,8.032
34.232,7.972
34.236,7.936
34.24,8.024
34.244,8.036
34.248,8
34.252,7.928
34.256,7.996
34.26,8.016
34.264,8.032
34.268,7.932
34.272,8
34.276,8
34.28,8.004
34.284,7.96
34.288,8
34.292,8
34.296,8.04
34.3,7.964
34.304,7.988
34.308,7.988
34.312,8.052
34.316,7.988
34.32,7.952
34.324,7.996
34.328,8.06
34.332,8.028
34.336,7.996
34.34,8.116
34.344,8.164
34.348,8.14
34.352,8.064
34.356,8.192
34.36,8.22
34.364,8.22
34.368,8.144
34.372,8.212
34.376,8.228
34.38,8.216
34.384,8.168
34.388,8.188
34.392,8.188
34.396,8.192
34.4,8.056
34.404,8.004
34.408,8.032
34.412,8.044
34.416,7.98
34.42,7.948
34.424,7.996
34.428,8
34.432,7.968
34.436,7.904
34.44,7.964
34.444,7.996
34.448,7.94
34.452,7.888
34.456,7.992
34.46,7.98
34.464,7.892
34.468,7.764
34.472,7.844
34.476,7.78
34.48,8.024
34.484,8.58
34.488,9.54
34.492,10.488
34.496,11.08
34.5,10.54
34.504,10.016
34.508,9.712
34.512,9.332
34.516,8.792
34.52,8.36
34.524,8.136
34.528,8.156
34.532,8.124
34.536,8.044
34.54,8.1
34.544,8.108
34.548,8.028
34.552,7.908
34.556,8.004
34.56,8.032
34.564,8.004
34.568,7.936
34.572,7.984
34.576,7.98
34.58,8.024
34.584,7.956
34.588,8.032
34.592,7.988
34.596,8.016
34.6,7.968
34.604,7.98
34.608,7.98
34.612,8.004
34.616,7.988
34.62,7.936
34.624,7.988
34.628,8.004
34.632,7.984
34.636,7.928
34.64,7.98
34.644,8.008
34.648,7.992
34.652,7.916
34.656,8.032
34.66,8.056
34.664,8.048
34.668,7.96
34.672,8.048
34.676,8.028
34.68,8.032
34.684,7.98
34.688,8.036
34.692,8.036
34.696,8.084
34.7,8.052
34.704,8.064
34.708,8.108
34.712,8.164
34.716,8.104
34.72,8.084
34.724,8.144
34.728,8.184
34.732,8.188
34.736,8.152
34.74,8.248
34.744,8.248
34.748,8.272
34.752,8.22
34.756,8.332
34.76,8.368
34.764,8.388
34.768,8.316
34.772,8.432
34.776,8.444
34.78,8.492
34.784,8.428
34.788,8.456
34.792,8.496
34.796,8.56
34.8,8.5
34.804,8.512
34.808,8.524
34.812,8.56
34.816,8.484
34.82,8.376
34.824,8.452
34.828,8.44
34.832,8.352
34.836,8.24
34.84,8.28
34.844,8.272
34.848,8.2
34.852,8.08
34.856,8.148
34.86,8.112
34.864,8.112
34.868,8
34.872,8.056
34.876,8.064
34.88,8.04
34.884,7.972
34.888,7.996
34.892,8.024
34.896,8.008
34.9,7.968
34.904,7.948
34.908,8.028
34.912,8.048
34.916,7.98
34.92,7.912
34.924,8.02
34.928,8.048
34.932,8.008
34.936,7.948
34.94,8.032
34.944,8.016
34.948,8.008
34.952,7.928
34.956,8.052
34.96,8.04
34.964,8.004
34.968,7.944
34.972,8.048
34.976,8.028
34.98,8.016
34.984,7.948
34.988,7.992
34.992,8
34.996,8.02
35,7.968
35.004,7.952
35.008,8.004
35.012,8.02
35.016,7.996
35.02,7.92
35.024,8.008
35.028,8
35.032,7.984
35.036,7.916
35.04,8.004
35.044,8.008
35.048,7.976
35.052,7.916
35.056,7.976
35.06,8.02
35.064,7.968
35.068,7.936
35.072,7.968
35.076,7.952
35.08,8
35.084,7.932
35.088,7.932
35.092,7.972
35.096,7.976
35.1,7.944
35.104,7.944
35.108,8.012
35.112,8.016
35.116,7.972
35.12,7.908
35.124,7.988
35.128,7.996
35.132,7.948
35.136,7.92
35.14,7.996
35.144,8
35.148,7.984
35.152,7.948
35.156,7.992
35.16,8.008
35.164,7.992
35.168,7.94
35.172,7.952
35.176,7.988
35.18,7.984
35.184,7.948
35.188,7.964
35.192,8.044
35.196,8.032
35.2,7.96
35.204,7.936
35.208,8.008
35.212,8.016
35.216,7.976
35.22,7.9
35.224,7.956
35.228,8.02
35.232,7.98
35.236,7.928
35.24,7.976
35.244,8.032
35.248,7.996
35.252,7.952
35.256,7.964
35.26,8.024
35.264,7.996
35.268,7.964
35.272,7.944
35.276,8.028
35.28,8.016
35.284,7.956
35.288,7.948
35.292,7.996
35.296,8.028
35.3,7.972
35.304,7.976
35.308,8.056
35.312,8.068
35.316,8.092
35.32,8.088
35.324,8.104
35.328,8.156
35.332,8.136
35.336,8.108
35.34,8.176
35.344,8.244
35.348,8.22
35.352,8.18
35.356,8.184
35.36,8.236
35.364,8.204
35.368,8.136
35.372,8.144
35.376,8.168
35.38,8.072
35.384,7.98
35.388,7.984
35.392,8.044
35.396,8.032
35.4,7.956
35.404,7.924
35.408,8.004
35.412,8.028
35.416,7.952
35.42,7.916
35.424,7.96
35.428,8.024
35.432,7.964
35.436,7.908
35.44,7.928
35.444,7.924
35.448,7.856
35.452,7.748
35.456,7.832
35.46,8.376
35.464,9.148
35.468,10.08
35.472,11.024
35.476,10.964
35.48,10.348
35.484,9.888
35.488,9.536
35.492,9.068
35.496,8.608
35.5,8.248
35.504,8.124
35.508,8.16
35.512,8.204
35.516,8.136
35.52,8.06
35.524,8.056
35.528,8.08
35.532,8.032
35.536,7.984
35.54,8.008
35.544,8.064
35.548,8.024
35.552,7.976
35.556,8
35.56,8.06
35.564,8.036
35.568,7.968
35.572,7.992
35.576,8.032
35.58,8.072
35.584,7.976
35.588,7.976
35.592,8.052
35.596,8.044
35.6,8
35.604,7.98
35.608,8.02
35.612,8.04
35.616,7.992
35.62,7.984
35.624,8.048
35.628,8.116
35.632,8.056
35.636,8.024
35.64,8.056
35.644,8.104
35.648,8.088
35.652,8.04
35.656,8.068
35.66,8.1
35.664,8.124
35.668,8.06
35.672,8.096
35.676,8.144
35.68,8.176
35.684,8.132
35.688,8.132
35.692,8.192
35.696,8.216
35.7,8.176
35.704,8.172
35.708,8.256
35.712,8.288
35.716,8.272
35.72,8.224
35.724,8.3
35.728,8.38
35.732,8.364
35.736,8.344
35.74,8.4
35.744,8.464
35.748,8.468
35.752,8.436
35.756,8.5
35.76,8.552
35.764,8.556
35.768,8.508
35.772,8.552
35.776,8.628
35.78,8.624
35.784,8.552
35.788,8.536
35.792,8.58
35.796,8.56
35.8,8.464
35.804,8.416
35.808,8.404
35.812,8.412
35.816,8.324
35.82,8.252
35.824,8.268
35.828,8.248
35.832,8.168
35.836,8.084
35.84,8.132
35.844,8.172
35.848,8.14
35.852,8.036
35.856,8.068
35.86,8.112
35.864,8.092
35.868,8.024
35.872,8.044
35.876,8.092
35.88,8.092
35.884,8.052
35.888,8.02
35.892,8.088
35.896,8.076
35.9,8.072
35.904,8.044
35.908,8.084
35.912,8.092
35.916,8.052
35.92,7.992
35.924,8.088
35.928,8.104
35.932,8.048
35.936,8.004
35.94,8.04
35.944,8.136
35.948,8.104
35.952,8.064
35.956,8.084
35.96,8.124
35.964,8.1
35.968,8.036
35.972,8.056
35.976,8.104
35.98,8.092
35.984,8.028
35.988,8.024
35.992,8.096
35.996,8.116
36,8.052
36.004,8.02
36.008,8.088
36.012,8.088
36.016,8.052
36.02,8.012
36.024,8.072
36.028,8.088
36.032,8.06
36.036,8.004
36.04,8.048
36.044,8.088
36.048,8.04
36.052,7.992
36.056,8.028
36.06,8.064
36.064,8.036
36.068,8.008
36.072,8.004
36.076,8.112
36.08,8.092
36.084,8.028
36.088,8.012
36.092,8.056
36.096,8.092
36.1,8.008
36.104,7.984
36.108,8.052
36.112,8.072
36.116,8.02
36.12,8.004
36.124,8.068
36.128,8.08
36.132,8.052
36.136,7.992
36.14,8.06
36.144,8.116
36.148,8.052
36.152,8.02
36.156,8.04
36.16,8.088
36.164,8.076
36.168,8.028
36.172,8.024
36.176,8.06
36.18,8.064
36.184,8.008
36.188,8.024
36.192,8.08
36.196,8.084
36.2,8.016
36.204,8.004
36.208,8.068
36.212,8.092
36.216,8.016
36.22,7.992
36.224,8.084
36.228,8.112
36.232,8.012
36.236,7.984
36.24,8.064
36.244,8.084
36.248,8.048
36.252,8.008
36.256,8.04
36.26,8.076
36.264,8.044
36.268,7.996
36.272,8.052
36.276,8.08
36.28,8.068
36.284,8.016
36.288,8.02
36.292,8.1
36.296,8.104
36.3,8.092
36.304,8.076
36.308,8.192
36.312,8.204
36.316,8.172
36.32,8.18
36.324,8.26
36.328,8.288
36.332,8.26
36.336,8.236
36.34,8.308
36.344,8.308
36.348,8.264
36.352,8.236
36.356,8.288
36.36,8.284
36.364,8.256
36.368,8.14
36.372,8.136
36.376,8.128
36.38,8.132
36.384,8.068
36.388,8.036
36.392,8.096
36.396,8.08
36.4,8.064
36.404,8.036
36.408,8.088
36.412,8.088
36.416,8.056
36.42,8.044
36.424,8.12
36.428,8.08
36.432,8.044
36.436,7.92
36.44,8.004
36.444,7.928
36.448,7.916
36.452,8.348
36.456,9.164
36.46,10.092
36.464,11.012
36.468,10.916
36.472,10.332
36.476,9.94
36.48,9.592
36.484,9.044
36.488,8.58
36.492,8.364
36.496,8.272
36.5,8.22
36.504,8.208
36.508,8.272
36.512,8.196
36.516,8.14
36.52,8.068
36.524,8.164
36.528,8.12
36.532,8.12
36.536,8.04
36.54,8.144
36.544,8.108
36.548,8.108
36.552,8.052
36.556,8.14
36.56,8.108
36.564,8.12
36.568,8.052
36.572,8.088
36.576,8.144
36.58,8.132
36.584,8.084
36.588,8.076
36.592,8.152
36.596,8.148
36.6,8.088
36.604,8.064
36.608,8.148
36.612,8.152
36.616,8.128
36.62,8.1
36.624,8.192
36.628,8.16
36.632,8.124
36.636,8.1
36.64,8.196
36.644,8.164
36.648,8.152
36.652,8.108
36.656,8.192
36.66,8.212
36.664,8.2
36.668,8.164
36.672,8.192
36.676,8.22
36.68,8.236
36.684,8.228
36.688,8.22
36.692,8.292
36.696,8.316
36.7,8.256
36.704,8.244
36.708,8.36
36.712,8.36
36.716,8.348
36.72,8.332
36.724,8.488
36.728,8.48
36.732,8.48
36.736,8.432
36.74,8.54
36.744,8.584
36.748,8.572
36.752,8.544
36.756,8.624
36.76,8.636
36.764,8.636
36.768,8.616
36.772,8.66
36.776,8.676
36.78,8.652
36.784,8.588
36.788,8.568
36.792,8.6
36.796,8.552
36.8,8.472
36.804,8.4
36.808,8.464
36.812,8.392
36.816,8.324
36.82,8.244
36.824,8.3
36.828,8.236
36.832,8.216
36.836,8.144
36.84,8.216
36.844,8.204
36.848,8.148
36.852,8.116
36.856,8.172
36.86,8.152
36.864,8.132
36.868,8.072
36.872,8.1
36.876,8.144
36.88,8.144
36.884,8.08
36.888,8.068
36.892,8.144
36.896,8.136
36.9,8.104
36.904,8.076
36.908,8.192
36.912,8.148
36.916,8.112
36.92,8.076
36.924,8.148
36.928,8.128
36.932,8.128
36.936,8.072
36.94,8.184
36.944,8.152
36.948,8.124
36.952,8.068
36.956,8.156
36.96,8.152
36.964,8.148
36.968,8.064
36.972,8.112
36.976,8.144
36.98,8.14
36.984,8.096
36.988,8.084
36.992,8.148
36.996,8.12
37,8.096
37.004,8.064
37.008,8.132
37.012,8.136
37.016,8.096
37.02,8.068
37.024,8.164
37.028,8.152
37.032,8.132
37.036,8.056
37.04,8.152
37.044,8.14
37.048,8.136
37.052,8.064
37.056,8.1
37.06,8.132
37.064,8.128
37.068,8.084
37.072,8.092
37.076,8.104
37.08,8.112
37.084,8.056
37.088,8.072
37.092,8.172
37.096,8.128
37.1,8.08
37.104,8.044
37.108,8.16
37.112,8.128
37.116,8.084
37.12,8.032
37.124,8.116
37.128,8.1
37.132,8.104
37.136,8.028
37.14,8.12
37.144,8.136
37.148,8.1
37.152,8.048
37.156,8.112
37.16,8.124
37.164,8.104
37.168,8.068
37.172,8.08
37.176,8.14
37.18,8.128
37.184,8.036
37.188,8.048
37.192,8.148
37.196,8.136
37.2,8.06
37.204,8.052
37.208,8.132
37.212,8.116
37.216,8.08
37.22,8.044
37.224,8.164
37.228,8.124
37.232,8.076
37.236,8.056
37.24,8.156
37.244,8.148
37.248,8.092
37.252,8.036
37.256,8.08
37.26,8.1
37.264,8.096
37.268,8.064
37.272,8.06
37.276,8.12
37.28,8.12
37.284,8.084
37.288,8.096
37.292,8.184
37.296,8.172
37.3,8.152
37.304,8.164
37.308,8.264
37.312,8.28
37.316,8.24
37.32,8.228
37.324,8.28
37.328,8.296
37.332,8.26
37.336,8.22
37.34,8.292
37.344,8.26
37.348,8.228
37.352,8.168
37.356,8.208
37.36,8.148
37.364,8.1
37.368,8.068
37.372,8.08
37.376,8.128
37.38,8.08
37.384,8.008
37.388,8.028
37.392,8.132
37.396,8.072
37.4,8.04
37.404,7.988
37.408,8.08
37.412,8.06
37.416,8.02
37.42,7.956
37.424,7.976
37.428,7.944
37.432,7.872
37.436,7.848
37.44,8.4
37.444,9.128
37.448,10.064
37.452,10.904
37.456,10.868
37.46,10.328
37.464,9.92
37.468,9.552
37.472,9.056
37.476,8.7
37.48,8.32
37.484,8.212
37.488,8.18
37.492,8.276
37.496,8.2
37.5,8.148
37.504,8.052
37.508,8.156
37.512,8.076
37.516,8.056
37.52,8.032
37.524,8.12
37.528,8.056
37.532,8.048
37.536,8.004
37.54,8.096
37.544,8.088
37.548,8.072
37.552,8.028
37.556,8.072
37.56,8.084
37.564,8.06
37.568,8.04
37.572,8.044
37.576,8.136
37.58,8.084
37.584,8.052
37.588,8.06
37.592,8.156
37.596,8.132
37.6,8.06
37.604,8.024
37.608,8.128
37.612,8.092
37.616,8.076
37.62,8.036
37.624,8.148
37.628,8.128
37.632,8.132
37.636,8.072
37.64,8.128
37.644,8.152
37.648,8.12
37.652,8.108
37.656,8.16
37.66,8.204
37.664,8.144
37.668,8.092
37.672,8.156
37.676,8.26
37.68,8.216
37.684,8.176
37.688,8.18
37.692,8.34
37.696,8.296
37.7,8.304
37.704,8.292
37.708,8.412
37.712,8.364
37.716,8.372
37.72,8.36
37.724,8.504
37.728,8.496
37.732,8.468
37.736,8.444
37.74,8.536
37.744,8.564
37.748,8.544
37.752,8.52
37.756,8.56
37.76,8.644
37.764,8.576
37.768,8.52
37.772,8.532
37.776,8.552
37.78,8.5
37.784,8.436
37.788,8.368
37.792,8.436
37.796,8.312
37.8,8.26
37.804,8.212
37.808,8.292
37.812,8.228
37.816,8.116
37.82,8.076
37.824,8.188
37.828,8.16
37.832,8.068
37.836,8
37.84,8.092
37.844,8.112
37.848,8.036
37.852,7.992
37.856,8.036
37.86,8.092
37.864,8.052
37.868,8
37.872,8.032
37.876,8.1
37.88,8.04
37.884,7.968
37.888,7.984
37.892,8.116
37.896,8.06
37.9,8.004
37.904,7.972
37.908,8.12
37.912,8.08
37.916,8.036
37.92,7.992
37.924,8.072
37.928,8.02
37.932,7.988
37.936,7.988
37.94,8.016
37.944,8.036
37.948,8.008
37.952,7.948
37.956,8.02
37.96,8.048
37.964,8
37.968,7.94
37.972,7.952
37.976,8.056
37.98,8.012
37.984,7.968
37.988,7.928
37.992,8.076
37.996,7.996
38,7.976
38.004,7.952
38.008,8.044
38.012,7.988
38.016,7.948
38.02,7.94
38.024,8.016
38.028,7.988
38.032,7.98
38.036,7.948
38.04,7.988
38.044,8.02
38.048,7.98
38.052,7.936
38.056,7.952
38.06,8.024
38.064,7.992
38.068,7.932
38.072,7.928
38.076,8.048
38.08,8.012
38.084,7.968
38.088,7.968
38.092,8.04
38.096,7.988
38.1,7.932
38.104,7.932
38.108,8.04
38.112,8.016
38.116,7.96
38.12,7.928
38.124,8.02
38.128,8.024
38.132,7.972
38.136,7.92
38.14,7.964
38.144,8.012
38.148,7.98
38.152,7.952
38.156,7.952
38.16,8.032
38.164,7.964
38.168,7.924
38.172,7.96
38.176,8.048
38.18,8
38.184,7.952
38.188,7.952
38.192,8.044
38.196,8.016
38.2,7.952
38.204,7.944
38.208,8.048
38.212,7.988
38.216,7.996
38.22,7.956
38.224,8.024
38.228,8.008
38.232,7.976
38.236,7.948
38.24,8.016
38.244,8.02
38.248,7.976
38.252,7.948
38.256,8.016
38.26,8.104
38.264,8.08
38.268,8.052
38.272,8.044
38.276,8.172
38.28,8.16
38.284,8.148
38.288,8.132
38.292,8.22
38.296,8.192
38.3,8.2
38.304,8.148
38.308,8.256
38.312,8.184
38.316,8.128
38.32,8.116
38.324,8.204
38.328,8.096
38.332,7.956
38.336,7.944
38.34,7.992
38.344,8.04
38.348,7.948
38.352,7.924
38.356,7.936
38.36,8.008
38.364,7.964
38.368,7.888
38.372,7.904
38.376,8.02
38.38,7.96
38.384,7.932
38.388,7.912
38.392,7.968
38.396,7.84
38.4,7.768
38.404,7.704
38.408,8.132
38.412,8.772
38.416,9.652
38.42,10.588
38.424,11.148
38.428,10.612
38.432,10.028
38.436,9.68
38.44,9.256
38.444,8.82
38.448,8.388
38.452,8.14
38.456,8.164
38.46,8.2
38.464,8.124
38.468,8.048
38.472,7.996
38.476,8.068
38.48,8.02
38.484,7.952
38.488,7.948
38.492,8.04
38.496,7.992
38.5,7.924
38.504,7.928
38.508,8.024
38.512,7.984
38.516,7.96
38.52,7.908
38.524,8.004
38.528,7.968
38.532,7.94
38.536,7.912
38.54,7.968
38.544,8.036
38.548,7.936
38.552,7.924
38.556,7.98
38.56,8.072
38.564,7.996
38.568,7.912
38.572,7.948
38.576,8.032
38.58,7.984
38.584,7.94
38.588,7.948
38.592,8.088
38.596,8.02
38.6,7.988
38.604,7.948
38.608,8.088
38.612,8.06
38.616,8.016
38.62,8.004
38.624,8.08
38.628,8.112
38.632,8.076
38.636,8.032
38.64,8.1
38.644,8.176
38.648,8.144
38.652,8.104
38.656,8.144
38.66,8.256
38.664,8.208
38.668,8.208
38.672,8.256
38.676,8.384
38.68,8.324
38.684,8.304
38.688,8.308
38.692,8.464
38.696,8.448
38.7,8.452
38.704,8.416
38.708,8.56
38.712,8.56
38.716,8.532
38.72,8.516
38.724,8.604
38.728,8.636
38.732,8.584
38.736,8.532
38.74,8.56
38.744,8.572
38.748,8.5
38.752,8.404
38.756,8.428
38.76,8.476
38.764,8.376
38.768,8.296
38.772,8.284
38.776,8.348
38.78,8.236
38.784,8.164
38.788,8.128
38.792,8.216
38.796,8.136
38.8,8.084
38.804,8.056
38.808,8.132
38.812,8.08
38.816,8.048
38.82,8.032
38.824,8.072
38.828,8.088
38.832,8.04
38.836,7.98
38.84,8.068
38.844,8.12
38.848,8.048
38.852,8
38.856,8.008
38.86,8.112
38.864,8.044
38.868,8.032
38.872,8.012
38.876,8.128
38.88,8.052
38.884,8.004
38.888,7.992
38.892,8.1
38.896,8.04
38.9,7.992
38.904,7.992
38.908,8.072
38.912,8.068
38.916,8.012
38.92,7.972
38.924,8.048
38.928,8.08
38.932,8.012
38.936,7.964
38.94,8.024
38.944,8.1
38.948,8.02
38.952,8.004
38.956,8.004
38.96,8.112
38.964,8.016
38.968,7.992
38.972,8.016
38.976,8.108
38.98,8.016
38.984,7.98
38.988,7.968
38.992,8.096
38.996,8.04
39,7.992
39.004,7.98
39.008,8.044
39.012,8.056
39.016,8.004
39.02,7.976
39.024,8.032
39.028,8.056
39.032,8.012
39.036,7.976
39.04,8.024
39.044,8.076
39.048,8
39.052,7.976
39.056,8.004
39.06,8.108
39.064,8.016
39.068,7.984
39.072,7.964
39.076,8.028
39.08,8.036
39.084,7.984
39.088,8.004
39.092,8.052
39.096,8.044
39.1,7.988
39.104,8
39.108,8.06
39.112,8.08
39.116,7.984
39.12,7.972
39.124,8.012
39.128,8.072
39.132,8.028
39.136,7.972
39.14,8
39.144,8.088
39.148,8.04
39.152,7.984
39.156,8
39.16,8.056
39.164,8.032
39.168,7.968
39.172,7.996
39.176,8.072
39.18,8.036
39.184,7.972
39.188,7.984
39.192,8.044
39.196,8.072
39.2,8
39.204,7.956
