0,7.876
0.004,8.024
0.008,8.144
0.012,8
0.016,7.88
0.02,8.02
0.024,8.172
0.028,8.048
0.032,7.896
0.036,8.012
0.04,8.18
0.044,8.108
0.048,7.968
0.052,8.012
0.056,8.16
0.06,8.148
0.064,7.992
0.068,8.004
0.072,8.204
0.076,8.224
0.08,8.048
0.084,8.004
0.088,8.22
0.092,8.276
0.096,8.136
0.1,8.032
0.104,8.224
0.108,8.36
0.112,8.204
0.116,8.096
0.12,8.24
0.124,8.42
0.128,8.316
0.132,8.2
0.136,8.324
0.14,8.492
0.144,8.436
0.148,8.328
0.152,8.432
0.156,8.628
0.16,8.604
0.164,8.46
0.168,8.516
0.172,8.76
0.176,8.824
0.18,8.668
0.184,8.66
0.188,8.832
0.192,8.94
0.196,8.824
0.2,8.76
0.204,8.928
0.208,9.088
0.212,8.928
0.216,8.784
0.22,8.916
0.224,9.024
0.228,8.836
0.232,8.66
0.236,8.66
0.24,8.76
0.244,8.628
0.248,8.384
0.252,8.388
0.256,8.484
0.26,8.44
0.264,8.188
0.268,8.192
0.272,8.288
0.276,8.296
0.28,8.088
0.284,8.036
0.288,8.184
0.292,8.216
0.296,8.052
0.3,7.928
0.304,8.108
0.308,8.2
0.312,8.08
0.316,7.924
0.32,8.064
0.324,8.212
0.328,8.064
0.332,7.912
0.336,8.02
0.34,8.192
0.344,8.108
0.348,7.968
0.352,7.976
0.356,8.148
0.36,8.144
0.364,7.98
0.368,7.972
0.372,8.156
0.376,8.152
0.38,7.98
0.384,7.936
0.388,8.104
0.392,8.192
0.396,8.044
0.4,7.924
0.404,8.076
0.408,8.204
0.412,8.06
0.416,7.92
0.42,8.032
0.424,8.212
0.428,8.084
0.432,7.924
0.436,8.016
0.44,8.148
0.444,8.084
0.448,7.936
0.452,7.988
0.456,8.132
0.46,8.1
0.464,7.936
0.468,7.948
0.472,8.112
0.476,8.148
0.48,7.948
0.484,7.916
0.488,8.06
0.492,8.176
0.496,7.988
0.5,7.888
0.504,8.02
0.508,8.116
0.512,7.98
0.516,7.872
0.52,8
0.524,8.128
0.528,8.016
0.532,7.884
0.536,7.988
0.54,8.164
0.544,8.112
0.548,7.984
0.552,8.032
0.556,8.224
0.56,8.184
0.564,7.984
0.568,7.988
0.572,8.208
0.576,8.264
0.58,8.12
0.584,8.012
0.588,8.156
0.592,8.24
0.596,8.044
0.6,7.912
0.604,8.048
0.608,8.188
0.612,8.008
0.616,7.868
0.62,7.972
0.624,8.12
0.628,7.976
0.632,7.808
0.636,7.876
0.64,8.064
0.644,7.984
0.648,7.852
0.652,7.86
0.656,8.036
0.66,8.032
0.664,7.868
0.668,7.86
0.672,8.012
0.676,8.004
0.68,7.764
0.684,7.7
0.688,7.98
0.692,8.268
0.696,8.512
0.7,8.916
0.704,9.68
0.708,10.348
0.712,10.196
0.716,9.532
0.72,9.096
0.724,8.76
0.728,8.108
0.732,7.656
0.736,7.784
0.74,8.024
0.744,8.012
0.748,7.94
0.752,8.016
0.756,8.172
0.76,8.14
0.764,7.948
0.768,7.948
0.772,8.108
0.776,8.152
0.78,7.964
0.784,7.92
0.788,8.096
0.792,8.192
0.796,8.012
0.8,7.924
0.804,8.072
0.808,8.196
0.812,8.04
0.816,7.896
0.82,8.084
0.824,8.22
0.828,8.08
0.832,7.956
0.836,8.056
0.84,8.208
0.844,8.12
0.848,8
0.852,8.06
0.856,8.24
0.86,8.24
0.864,8.068
0.868,8.044
0.872,8.252
0.876,8.288
0.88,8.12
0.884,8.1
0.888,8.256
0.892,8.34
0.896,8.196
0.9,8.112
0.904,8.3
0.908,8.428
0.912,8.304
0.916,8.204
0.92,8.368
0.924,8.568
0.928,8.456
0.932,8.344
0.936,8.464
0.94,8.684
0.944,8.628
0.948,8.508
0.952,8.592
0.956,8.78
0.96,8.812
0.964,8.664
0.968,8.704
0.972,8.88
0.976,8.952
0.98,8.82
0.984,8.812
0.988,8.98
0.992,9.092
0.996,8.892
1,8.808
1.004,8.964
1.008,9.048
1.012,8.848
1.016,8.644
1.02,8.72
1.024,8.788
1.028,8.632
1.032,8.38
1.036,8.412
1.04,8.512
1.044,8.4
1.048,8.188
1.052,8.168
1.056,8.336
1.06,8.264
1.064,8.08
1.068,8.028
1.072,8.18
1.076,8.208
1.08,8.012
1.084,7.96
1.088,8.1
1.092,8.192
1.096,8.024
1.1,7.916
1.104,8.064
1.108,8.196
1.112,8.056
1.116,7.936
1.12,8.06
1.124,8.188
1.128,8.06
1.132,7.94
1.136,8.024
1.14,8.192
1.144,8.112
1.148,7.96
1.152,8
1.156,8.204
1.16,8.14
1.164,7.972
1.168,7.956
1.172,8.148
1.176,8.176
1.18,8.012
1.184,7.94
1.188,8.1
1.192,8.192
1.196,8.048
1.2,7.936
1.204,8.088
1.208,8.196
1.212,8.004
1.216,7.9
1.22,8.064
1.224,8.18
1.228,8.076
1.232,7.912
1.236,8.024
1.24,8.18
1.244,8.104
1.248,7.944
1.252,7.976
1.256,8.164
1.26,8.128
1.264,7.972
1.268,7.944
1.272,8.116
1.276,8.16
1.28,8.004
1.284,7.928
1.288,8.084
1.292,8.18
1.296,8.016
1.3,7.9
1.304,8.036
1.308,8.18
1.312,8.036
1.316,7.9
1.32,8.028
1.324,8.16
1.328,8.068
1.332,7.9
1.336,7.984
1.34,8.112
1.344,8.076
1.348,7.928
1.352,7.94
1.356,8.128
1.36,8.072
1.364,7.948
1.368,7.932
1.372,8.104
1.376,8.124
1.38,7.952
1.384,7.876
1.388,8.044
1.392,8.152
1.396,7.956
1.4,7.856
1.404,8.016
1.408,8.172
1.412,8.008
1.416,7.864
1.42,7.984
1.424,8.128
1.428,8.016
1.432,7.872
1.436,7.948
1.44,8.116
1.444,8.048
1.448,7.908
1.452,7.94
1.456,8.104
1.46,8.092
1.464,7.9
1.468,7.9
1.472,8.068
1.476,8.116
1.48,7.928
1.484,7.852
1.488,8.008
1.492,8.124
1.496,7.956
1.5,7.864
1.504,8
1.508,8.132
1.512,7.972
1.516,7.852
1.52,7.992
1.524,8.124
1.528,8.012
1.532,7.852
1.536,7.972
1.54,8.104
1.544,8.056
1.548,7.88
1.552,7.912
1.556,8.108
1.56,8.072
1.564,7.904
1.568,7.88
1.572,8.044
1.576,8.096
1.58,7.932
1.584,7.848
1.588,8.032
1.592,8.104
1.596,7.936
1.6,7.848
1.604,8.008
1.608,8.14
1.612,7.972
1.616,7.832
1.62,7.968
1.624,8.144
1.628,8.008
1.632,7.872
1.636,7.936
1.64,8.08
1.644,8.024
1.648,7.888
1.652,7.932
1.656,8.092
1.66,8.072
1.664,7.92
1.668,7.884
1.672,8.048
1.676,8.088
1.68,7.932
1.684,7.852
1.688,8.016
1.692,8.112
1.696,7.964
1.7,7.872
1.704,8.064
1.708,8.204
1.712,8.096
1.716,7.928
1.72,8.024
1.724,8.172
1.728,8.092
1.732,7.988
1.736,8.08
1.74,8.188
1.744,8.096
1.748,7.94
1.752,7.968
1.756,8.088
1.76,8.02
1.764,7.908
1.768,7.876
1.772,8.048
1.776,8.072
1.78,7.872
1.784,7.792
1.788,7.92
1.792,8.044
1.796,7.856
1.8,7.744
1.804,7.884
1.808,8.028
1.812,7.876
1.816,7.752
1.82,7.864
1.824,8.012
1.828,7.868
1.832,7.616
1.836,7.688
1.84,7.936
1.844,8.068
1.848,8.312
1.852,8.856
1.856,9.672
1.86,10.232
1.864,10.096
1.868,9.5
1.872,9.144
1.876,8.712
1.88,8.036
1.884,7.576
1.888,7.764
1.892,7.992
1.896,7.884
1.9,7.8
1.904,7.976
1.908,8.112
1.912,7.944
1.916,7.8
1.92,7.908
1.924,8.064
1.928,7.94
1.932,7.8
1.936,7.86
1.94,8.02
1.944,7.972
1.948,7.812
1.952,7.832
1.956,7.992
1.96,8.024
1.964,7.848
1.968,7.812
1.972,7.988
1.976,8.028
1.98,7.872
1.984,7.796
1.988,7.988
1.992,8.08
1.996,7.9
2,7.804
2.004,7.972
2.008,8.128
2.012,7.984
2.016,7.856
2.02,7.956
2.024,8.116
2.028,8.032
2.032,7.892
2.036,7.964
2.04,8.132
2.044,8.084
2.048,7.956
2.052,8.004
2.056,8.144
2.06,8.172
2.064,8.024
2.068,8.032
2.072,8.228
2.076,8.312
2.08,8.14
2.084,8.12
2.088,8.312
2.092,8.444
2.096,8.336
2.1,8.216
2.104,8.412
2.108,8.564
2.112,8.484
2.116,8.368
2.12,8.544
2.124,8.712
2.128,8.616
2.132,8.528
2.136,8.636
2.14,8.836
2.144,8.788
2.148,8.644
2.152,8.72
2.156,8.872
2.16,8.888
2.164,8.7
2.168,8.644
2.172,8.792
2.176,8.8
2.18,8.572
2.184,8.448
2.188,8.528
2.192,8.564
2.196,8.336
2.2,8.16
2.204,8.236
2.208,8.316
2.212,8.096
2.216,7.936
2.22,8.016
2.224,8.152
2.228,7.976
2.232,7.82
2.236,7.896
2.24,8.048
2.244,7.968
2.248,7.796
2.252,7.804
2.256,7.968
2.26,7.984
2.264,7.808
2.268,7.76
2.272,7.952
2.276,7.996
2.28,7.836
2.284,7.752
2.288,7.876
2.292,8.004
2.296,7.844
2.3,7.728
2.304,7.88
2.308,8.016
2.312,7.88
2.316,7.7
2.32,7.816
2.324,8.016
2.328,7.904
2.332,7.74
2.336,7.832
2.34,7.976
2.344,7.92
2.348,7.78
2.352,7.772
2.356,7.944
2.36,7.924
2.364,7.772
2.368,7.756
2.372,7.92
2.376,7.948
2.38,7.784
2.384,7.696
2.388,7.868
2.392,7.976
2.396,7.804
2.4,7.668
2.404,7.832
2.408,7.96
2.412,7.82
2.416,7.676
2.42,7.792
2.424,7.952
2.428,7.816
2.432,7.696
2.436,7.752
2.44,7.94
2.444,7.856
2.448,7.688
2.452,7.696
2.456,7.896
2.46,7.868
2.464,7.7
2.468,7.664
2.472,7.848
2.476,7.884
2.48,7.692
2.484,7.64
2.488,7.808
2.492,7.904
2.496,7.728
2.5,7.62
2.504,7.772
2.508,7.876
2.512,7.764
2.516,7.616
2.52,7.748
2.524,7.868
2.528,7.784
2.532,7.616
2.536,7.716
2.54,7.876
2.544,7.836
2.548,7.664
2.552,7.684
2.556,7.852
2.56,7.88
2.564,7.684
2.568,7.664
2.572,7.832
2.576,7.9
2.58,7.736
2.584,7.648
2.588,7.784
2.592,7.9
2.596,7.76
2.6,7.632
2.604,7.784
2.608,7.932
2.612,7.764
2.616,7.628
2.62,7.756
2.624,7.896
2.628,7.804
2.632,7.656
2.636,7.716
2.64,7.876
2.644,7.832
2.648,7.684
2.652,7.7
2.656,7.88
2.66,7.916
2.664,7.772
2.668,7.716
2.672,7.888
2.676,7.956
2.68,7.828
2.684,7.76
2.688,7.956
2.692,8.036
2.696,7.844
2.7,7.712
2.704,7.82
2.708,7.964
2.712,7.82
2.716,7.668
2.72,7.788
2.724,7.892
2.728,7.792
2.732,7.652
2.736,7.68
2.74,7.844
2.744,7.784
2.748,7.62
2.752,7.644
2.756,7.804
2.76,7.82
2.764,7.668
2.768,7.632
2.772,7.808
2.776,7.86
2.78,7.64
2.784,7.472
2.788,7.604
2.792,7.808
2.796,7.868
2.8,8.132
2.804,8.824
2.808,9.572
2.812,10.024
2.816,9.924
2.82,9.5
2.824,9.068
2.828,8.488
2.832,7.812
2.836,7.532
2.84,7.704
2.844,7.764
2.848,7.676
2.852,7.724
2.856,7.952
2.86,7.956
2.864,7.764
2.868,7.7
2.872,7.868
2.876,7.944
2.88,7.78
2.884,7.692
2.888,7.824
2.892,7.968
2.896,7.8
2.9,7.684
2.904,7.824
2.908,7.964
2.912,7.836
2.916,7.708
2.92,7.832
2.924,7.984
2.928,7.892
2.932,7.748
2.936,7.8
2.94,7.956
2.944,7.936
2.948,7.776
2.952,7.788
2.956,7.992
2.96,7.996
2.964,7.856
2.968,7.816
2.972,8.008
2.976,8.06
2.98,7.884
2.984,7.844
2.988,8.008
2.992,8.112
2.996,7.972
3,7.876
3.004,8.036
3.008,8.216
3.012,8.088
3.016,7.952
3.02,8.088
3.024,8.264
3.028,8.196
3.032,8.096
3.036,8.184
3.04,8.352
3.044,8.352
3.048,8.244
3.052,8.3
3.056,8.504
3.06,8.528
3.064,8.388
3.068,8.396
3.072,8.62
3.076,8.696
3.08,8.556
3.084,8.5
3.088,8.704
3.092,8.856
3.096,8.7
3.1,8.6
3.104,8.756
3.108,8.884
3.112,8.748
3.116,8.608
3.12,8.64
3.124,8.744
3.128,8.6
3.132,8.392
3.136,8.372
3.14,8.484
3.144,8.352
3.148,8.144
3.152,8.116
3.156,8.22
3.16,8.16
3.164,7.976
3.168,7.88
3.172,8.032
3.176,8.088
3.18,7.892
3.184,7.78
3.188,7.92
3.192,8.028
3.196,7.848
3.2,7.756
3.204,7.86
3.208,8
3.212,7.88
3.216,7.756
3.22,7.844
3.224,7.996
3.228,7.904
3.232,7.764
3.236,7.82
3.24,7.992
3.244,7.948
3.248,7.776
3.252,7.792
3.256,7.98
3.26,8.004
3.264,7.856
3.268,7.776
3.272,7.948
3.276,8.032
3.28,7.844
3.284,7.776
3.288,7.932
3.292,8.048
3.296,7.884
3.3,7.772
3.304,7.904
3.308,8.056
3.312,7.916
3.316,7.756
3.32,7.872
3.324,8.04
3.328,7.94
3.332,7.796
3.336,7.852
3.34,8.02
3.344,7.984
3.348,7.824
3.352,7.82
3.356,7.976
3.36,7.98
3.364,7.824
3.368,7.796
3.372,7.952
3.376,8.036
3.38,7.812
3.384,7.756
3.388,7.916
3.392,8.036
3.396,7.86
3.4,7.724
3.404,7.892
3.408,8.02
3.412,7.876
3.416,7.744
3.42,7.836
3.424,8
3.428,7.908
3.432,7.752
3.436,7.82
3.44,7.98
3.444,7.952
3.448,7.776
3.452,7.796
3.456,7.972
3.46,7.968
3.464,7.804
3.468,7.756
3.472,7.94
3.476,7.992
3.48,7.828
3.484,7.736
3.488,7.892
3.492,8.028
3.496,7.872
3.5,7.772
3.504,7.88
3.508,8.02
3.512,7.884
3.516,7.764
3.52,7.872
3.524,8.008
3.528,7.892
3.532,7.768
3.536,7.816
3.54,8.016
3.544,7.968
3.548,7.796
3.552,7.768
3.556,7.968
3.56,8.008
3.564,7.84
3.568,7.768
3.572,7.932
3.576,8.004
3.58,7.86
3.584,7.764
3.588,7.912
3.592,8.028
3.596,7.88
3.6,7.772
3.604,7.9
3.608,8.028
3.612,7.936
3.616,7.788
3.62,7.884
3.624,8.036
3.628,7.944
3.632,7.804
3.636,7.872
3.64,8
3.644,7.992
3.648,7.856
3.652,7.852
3.656,8
3.66,8.028
3.664,7.888
3.668,7.868
3.672,8.076
3.676,8.136
3.68,7.976
3.684,7.9
3.688,8.076
3.692,8.192
3.696,8.072
3.7,7.976
3.704,8.072
3.708,8.212
3.712,8.052
3.716,7.896
3.72,7.992
3.724,8.136
3.728,8.028
3.732,7.892
3.736,7.928
3.74,8.068
3.744,8.024
3.748,7.844
3.752,7.852
3.756,8
3.76,8.024
3.764,7.864
3.768,7.82
3.772,7.992
3.776,8.088
3.78,7.916
3.784,7.804
3.788,7.952
3.792,8.004
3.796,7.792
3.8,7.716
3.804,7.964
3.808,8.348
3.812,8.724
3.816,9.132
3.82,9.904
3.824,10.396
3.828,10.052
3.832,9.296
3.836,8.832
3.84,8.496
3.844,7.984
3.848,7.652
3.852,7.796
3.856,8.044
3.86,8.128
3.864,8.008
3.868,7.976
3.872,8.116
3.876,8.188
3.88,8.02
3.884,7.932
3.888,8.072
3.892,8.16
3.896,8.028
3.9,7.9
3.904,8.048
3.908,8.184
3.912,8.084
3.916,7.94
3.92,8.044
3.924,8.22
3.928,8.128
3.932,7.996
3.936,8.032
3.94,8.204
3.944,8.176
3.948,8.008
3.952,8.004
3.956,8.176
3.96,8.22
3.964,8.08
3.968,8.032
3.972,8.184
3.976,8.26
3.98,8.096
3.984,8.04
3.988,8.2
3.992,8.308
3.996,8.172
4,8.064
4.004,8.2
4.008,8.356
4.012,8.26
4.016,8.128
4.02,8.244
4.024,8.412
4.028,8.34
4.032,8.22
4.036,8.32
4.04,8.464
4.044,8.472
4.048,8.364
4.052,8.42
4.056,8.564
4.06,8.624
4.064,8.508
4.068,8.528
4.072,8.696
4.076,8.812
4.08,8.68
4.084,8.636
4.088,8.824
4.092,8.98
4.096,8.856
4.1,8.776
4.104,8.936
4.108,9.08
4.112,8.988
4.116,8.872
4.12,8.964
4.124,9.084
4.128,8.964
4.132,8.824
4.136,8.804
4.14,8.888
4.144,8.812
4.148,8.588
4.152,8.5
4.156,8.6
4.16,8.564
4.164,8.304
4.168,8.184
4.172,8.328
4.176,8.372
4.18,8.164
4.184,8.016
4.188,8.148
4.192,8.248
4.196,8.08
4.2,7.972
4.204,8.044
4.208,8.184
4.212,8.056
4.216,7.948
4.22,8.032
4.224,8.16
4.228,8.076
4.232,7.952
4.236,7.976
4.24,8.16
4.244,8.124
4.248,7.984
4.252,7.964
4.256,8.12
4.26,8.164
4.264,8.036
4.268,7.988
4.272,8.104
4.276,8.188
4.28,8.064
4.284,7.964
4.288,8.12
4.292,8.212
4.296,8.076
4.3,7.96
4.304,8.092
4.308,8.236
4.312,8.096
4.316,7.964
4.32,8.096
4.324,8.24
4.328,8.128
4.332,7.972
4.336,8.044
4.34,8.188
4.344,8.192
4.348,8.02
4.352,8.016
4.356,8.148
4.36,8.188
4.364,8.012
4.368,7.98
4.372,8.156
4.376,8.216
4.38,8.068
4.384,7.956
4.388,8.12
4.392,8.232
4.396,8.068
4.4,7.928
4.404,8.076
4.408,8.184
4.412,8.08
4.416,7.94
4.42,8.044
4.424,8.192
4.428,8.128
4.432,7.96
4.436,8.028
4.44,8.168
4.444,8.144
4.448,7.968
4.452,7.972
4.456,8.132
4.46,8.136
4.464,8
4.468,7.944
4.472,8.104
4.476,8.208
4.48,8.036
4.484,7.92
4.488,8.068
4.492,8.188
4.496,8.056
4.5,7.924
4.504,8.06
4.508,8.18
4.512,8.076
4.516,7.948
4.52,8.044
4.524,8.196
4.528,8.088
4.532,7.964
4.536,8.028
4.54,8.188
4.544,8.148
4.548,7.996
4.552,7.996
4.556,8.136
4.56,8.18
4.564,7.996
4.568,7.968
4.572,8.12
4.576,8.208
4.58,8.036
4.584,7.964
4.588,8.108
4.592,8.22
4.596,8.064
4.6,7.952
4.604,8.096
4.608,8.204
4.612,8.096
4.616,7.94
4.62,8.044
4.624,8.192
4.628,8.128
4.632,7.996
4.636,8.02
4.64,8.192
4.644,8.172
4.648,8.032
4.652,8.008
4.656,8.164
4.66,8.188
4.664,8.048
4.668,7.96
4.672,8.144
4.676,8.2
4.68,8.076
4.684,7.996
4.688,8.164
4.692,8.316
4.696,8.156
4.7,8.044
4.704,8.192
4.708,8.34
4.712,8.212
4.716,8.12
4.72,8.236
4.724,8.384
4.728,8.26
4.732,8.076
4.736,8.116
4.74,8.252
4.744,8.204
4.748,8.052
4.752,8.048
4.756,8.236
4.76,8.224
4.764,8.06
4.768,7.956
4.772,8.104
4.776,8.2
4.78,8.032
4.784,7.952
4.788,8.088
4.792,8.228
4.796,8.076
4.8,7.944
4.804,8.088
4.808,8.192
4.812,8.008
4.816,7.812
4.82,7.944
4.824,8.252
4.828,8.488
4.832,8.808
4.836,9.392
4.84,10.228
4.844,10.508
4.848,10.008
4.852,9.368
4.856,9.016
4.86,8.584
4.864,7.956
4.868,7.792
4.872,8.04
4.876,8.24
4.88,8.128
4.884,8.088
4.888,8.22
4.892,8.324
4.896,8.176
4.9,8.044
4.904,8.152
4.908,8.3
4.912,8.164
4.916,8.036
4.92,8.152
4.924,8.28
4.928,8.204
4.932,8.052
4.936,8.1
4.94,8.248
4.944,8.244
4.948,8.104
4.952,8.092
4.956,8.256
4.96,8.28
4.964,8.128
4.968,8.052
4.972,8.204
4.976,8.32
4.98,8.136
4.984,8.056
4.988,8.196
4.992,8.348
4.996,8.184
5,8.056
5.004,8.224
5.008,8.404
5.012,8.252
5.016,8.1
5.02,8.228
5.024,8.4
5.028,8.336
5.032,8.22
5.036,8.272
5.04,8.436
5.044,8.436
5.048,8.312
5.052,8.292
5.056,8.496
5.06,8.58
5.064,8.416
5.068,8.364
5.072,8.592
5.076,8.72
5.08,8.58
5.084,8.5
5.088,8.68
5.092,8.872
5.096,8.748
5.1,8.644
5.104,8.808
5.108,9
5.112,8.924
5.116,8.824
5.12,8.924
5.124,9.096
5.128,9.048
5.132,8.916
5.136,8.992
5.14,9.128
5.144,9.096
5.148,8.888
5.152,8.812
5.156,8.964
5.16,8.912
5.164,8.688
5.168,8.54
5.172,8.656
5.176,8.652
5.18,8.428
5.184,8.248
5.188,8.348
5.192,8.42
5.196,8.22
5.2,8.068
5.204,8.18
5.208,8.292
5.212,8.144
5.216,7.968
5.22,8.068
5.224,8.212
5.228,8.124
5.232,7.948
5.236,7.952
5.24,8.132
5.244,8.136
5.248,7.92
5.252,7.924
5.256,8.084
5.26,8.148
5.264,7.976
5.268,7.9
5.272,8.06
5.276,8.152
5.28,7.988
5.284,7.9
5.288,8.04
5.292,8.168
5.296,7.992
5.3,7.88
5.304,8.012
5.308,8.168
5.312,8.032
5.316,7.864
5.32,7.948
5.324,8.116
5.328,8.06
5.332,7.912
5.336,7.928
5.34,8.088
5.344,8.052
5.348,7.892
5.352,7.86
5.356,8.032
5.36,8.076
5.364,7.892
5.368,7.824
5.372,8.032
5.376,8.088
5.38,7.94
5.384,7.8
5.388,7.972
5.392,8.116
5.396,7.948
5.4,7.804
5.404,7.912
5.408,8.088
5.412,7.952
5.416,7.824
5.42,7.888
5.424,8.06
5.428,7.988
5.432,7.796
5.436,7.856
5.44,8.012
5.444,7.996
5.448,7.808
5.452,7.788
5.456,7.98
5.46,8.028
5.464,7.82
5.468,7.752
5.472,7.916
5.476,8.008
5.48,7.86
5.484,7.748
5.488,7.892
5.492,8.02
5.496,7.904
5.5,7.756
5.504,7.86
5.508,8.012
5.512,7.884
5.516,7.768
5.52,7.848
5.524,7.992
5.528,7.908
5.532,7.764
5.536,7.816
5.54,7.964
5.544,7.948
5.548,7.772
5.552,7.756
5.556,7.912
5.56,7.964
5.564,7.772
5.568,7.712
5.572,7.884
5.576,7.972
5.58,7.816
5.584,7.716
5.588,7.872
5.592,8.032
5.596,7.904
5.6,7.776
5.604,7.896
5.608,8.052
5.612,7.972
5.616,7.856
5.62,7.952
5.624,8.096
5.628,7.996
5.632,7.832
5.636,7.848
5.64,7.996
5.644,7.972
5.648,7.8
5.652,7.76
5.656,7.904
5.66,7.956
5.664,7.78
5.668,7.668
5.672,7.824
5.676,7.932
5.68,7.78
5.684,7.664
5.688,7.808
5.692,7.976
5.696,7.824
5.7,7.648
5.704,7.788
5.708,7.952
5.712,7.74
5.716,7.516
5.72,7.604
5.724,7.9
5.728,8.116
5.732,8.432
5.736,9.028
5.74,9.86
5.744,10.184
5.748,9.78
5.752,9.152
5.756,8.836
5.76,8.456
5.764,7.784
5.768,7.496
5.772,7.72
5.776,7.932
5.78,7.824
5.784,7.764
5.788,7.928
5.792,8.068
5.796,7.92
5.8,7.788
5.804,7.888
5.808,8.028
5.812,7.912
5.816,7.796
5.82,7.868
5.824,8.04
5.828,7.968
5.832,7.828
5.836,7.848
5.84,8.04
5.844,8.04
5.848,7.868
5.852,7.836
5.856,8.04
5.86,8.084
5.864,7.916
5.868,7.836
5.872,8.016
5.876,8.096
5.88,7.976
5.884,7.872
5.888,8.012
5.892,8.148
5.896,8.012
5.9,7.896
5.904,8.036
5.908,8.208
5.912,8.088
5.916,7.948
5.92,8.044
5.924,8.232
5.928,8.176
5.932,8.024
5.936,8.076
5.94,8.256
5.944,8.252
5.948,8.108
5.952,8.096
5.956,8.284
5.96,8.372
5.964,8.252
5.968,8.2
5.972,8.396
5.976,8.52
5.98,8.396
5.984,8.296
5.988,8.516
5.992,8.66
5.996,8.564
6,8.476
6.004,8.62
6.008,8.832
6.012,8.748
6.016,8.592
6.02,8.704
6.024,8.924
6.028,8.868
6.032,8.716
6.036,8.744
6.04,8.928
6.044,8.884
6.048,8.68
6.052,8.636
6.056,8.748
6.06,8.72
6.064,8.5
6.068,8.348
6.072,8.444
6.076,8.508
6.08,8.256
6.084,8.064
6.088,8.168
6.092,8.292
6.096,8.108
6.1,7.936
6.104,8.028
6.108,8.152
6.112,8.02
6.116,7.868
6.12,7.92
6.124,8.084
6.128,8.04
6.132,7.872
6.136,7.884
6.14,8.048
6.144,8.044
6.148,7.872
6.152,7.852
6.156,8.004
6.16,8.096
6.164,7.892
6.168,7.82
6.172,7.988
6.176,8.1
6.18,7.956
6.184,7.812
6.188,7.984
6.192,8.1
6.196,7.972
6.2,7.852
6.204,7.968
6.208,8.096
6.212,8.012
6.216,7.848
6.22,7.96
6.224,8.12
6.228,8.008
6.232,7.88
6.236,7.868
6.24,8.076
6.244,8.068
6.248,7.892
6.252,7.844
6.256,8.04
6.26,8.084
6.264,7.924
6.268,7.816
6.272,7.988
6.276,8.104
6.28,7.912
6.284,7.8
6.288,7.984
6.292,8.092
6.296,7.948
6.3,7.792
6.304,7.936
6.308,8.1
6.312,7.976
6.316,7.816
6.32,7.888
6.324,8.032
6.328,7.976
6.332,7.812
6.336,7.852
6.34,8.024
6.344,8.008
6.348,7.82
6.352,7.784
6.356,7.968
6.36,8.02
6.364,7.86
6.368,7.788
6.372,7.944
6.376,8.064
6.38,7.888
6.384,7.756
6.388,7.932
6.392,8.1
6.396,7.928
6.4,7.768
6.404,7.892
6.408,8.048
6.412,7.932
6.416,7.788
6.42,7.848
6.424,8.044
6.428,7.96
6.432,7.804
6.436,7.828
6.44,8.028
6.444,8.016
6.448,7.884
6.452,7.872
6.456,8.072
6.46,8.12
6.464,7.92
6.468,7.848
6.472,8.072
6.476,8.184
6.48,8.048
6.484,7.884
6.488,8.044
6.492,8.148
6.496,7.988
6.5,7.824
6.504,7.96
6.508,8.088
6.512,7.996
6.516,7.832
6.52,7.892
6.524,8.024
6.528,7.944
6.532,7.8
6.536,7.816
6.54,8
6.544,7.988
6.548,7.804
6.552,7.764
6.556,7.964
6.56,8.04
6.564,7.86
6.568,7.756
6.572,7.848
6.576,7.872
6.58,7.776
6.584,7.812
6.588,8.296
6.592,8.908
6.596,9.328
6.6,9.848
6.604,10.212
6.608,10.012
6.612,9.308
6.616,8.656
6.62,8.244
6.624,7.936
6.628,7.78
6.632,7.72
6.636,7.828
6.64,8.06
6.644,8.096
6.648,7.96
6.652,7.892
6.656,8.064
6.66,8.108
6.664,7.92
6.668,7.864
6.672,8.02
6.676,8.14
6.68,7.944
6.684,7.828
6.688,7.984
6.692,8.148
6.696,8
6.7,7.844
6.704,7.964
6.708,8.148
6.712,8.052
6.716,7.864
6.72,7.952
6.724,8.124
6.728,8.1
6.732,7.94
6.736,7.96
6.74,8.144
6.744,8.16
6.748,7.996
6.752,7.944
6.756,8.132
6.76,8.216
6.764,8.072
6.768,7.988
6.772,8.14
6.776,8.26
6.78,8.112
6.784,8.024
6.788,8.164
6.792,8.34
6.796,8.232
6.8,8.096
6.804,8.224
6.808,8.388
6.812,8.34
6.816,8.216
6.82,8.308
6.824,8.464
6.828,8.448
6.832,8.32
6.836,8.392
6.84,8.608
6.844,8.64
6.848,8.508
6.852,8.492
6.856,8.708
6.86,8.844
6.864,8.68
6.868,8.62
6.872,8.82
6.876,8.972
6.88,8.808
6.884,8.756
6.888,8.904
6.892,9.076
6.896,8.916
6.9,8.764
6.904,8.86
6.908,8.984
6.912,8.836
6.916,8.596
6.92,8.628
6.924,8.736
6.928,8.604
6.932,8.348
6.936,8.32
6.94,8.412
6.944,8.384
6.948,8.16
6.952,8.076
6.956,8.2
6.96,8.24
6.964,8.052
6.968,7.956
6.972,8.084
6.976,8.172
6.98,7.988
6.984,7.876
6.988,8.024
6.992,8.14
6.996,8.016
7,7.848
7.004,7.96
7.008,8.124
7.012,8.044
7.016,7.852
7.02,7.968
7.024,8.136
7.028,8.092
7.032,7.928
7.036,7.916
7.04,8.1
7.044,8.088
7.048,7.924
7.052,7.892
7.056,8.1
7.06,8.144
7.064,7.976
7.068,7.86
7.072,8.04
7.076,8.176
7.08,8.012
7.084,7.856
7.088,8
7.092,8.172
7.096,8.016
7.1,7.864
7.104,7.984
7.108,8.156
7.112,8.044
7.116,7.924
7.12,7.936
7.124,8.136
7.128,8.084
7.132,7.908
7.136,7.936
7.14,8.112
7.144,8.108
7.148,7.932
7.152,7.872
7.156,8.06
7.16,8.112
7.164,7.936
7.168,7.868
7.172,8.004
7.176,8.14
7.18,7.964
7.184,7.86
7.188,7.98
7.192,8.136
7.196,7.984
7.2,7.836
7.204,7.956
7.208,8.104
7.212,7.98
7.216,7.84
7.22,7.928
7.224,8.108
7.228,8.044
7.232,7.868
7.236,7.888
7.24,8.072
7.244,8.084
7.248,7.896
7.252,7.84
7.256,8.016
7.26,8.076
7.264,7.928
7.268,7.848
7.272,7.996
7.276,8.104
7.28,7.932
7.284,7.804
7.288,7.964
7.292,8.096
7.296,7.972
7.3,7.828
7.304,7.924
7.308,8.088
7.312,7.984
7.316,7.808
7.32,7.876
7.324,8.056
7.328,8.024
7.332,7.884
7.336,7.908
7.34,8.1
7.344,8.14
7.348,7.972
7.352,7.916
7.356,8.108
7.36,8.208
7.364,8.028
7.368,7.948
7.372,8.112
7.376,8.216
7.38,7.996
7.384,7.852
7.388,7.96
7.392,8.128
7.396,8
7.4,7.824
7.404,7.94
7.408,8.084
7.412,7.956
7.416,7.776
7.42,7.84
7.424,8.004
7.428,7.96
7.432,7.812
7.436,7.844
7.44,7.976
7.444,7.988
7.448,7.844
7.452,7.784
7.456,7.952
7.46,7.908
7.464,7.696
7.468,7.672
7.472,8.024
7.476,8.48
7.48,8.812
7.484,9.272
7.488,10.04
7.492,10.396
7.496,9.804
7.5,9.088
7.504,8.68
7.508,8.344
7.512,7.808
7.516,7.632
7.52,7.812
7.524,8.04
7.528,8.068
7.532,7.924
7.536,7.944
7.54,8.132
7.544,8.116
7.548,7.924
7.552,7.872
7.556,8.056
7.56,8.116
7.564,7.944
7.568,7.86
7.572,8.036
7.576,8.144
7.58,7.988
7.584,7.868
7.588,8.016
7.592,8.188
7.596,8.052
7.6,7.924
7.604,8.036
7.608,8.172
7.612,8.104
7.616,7.956
7.62,7.996
7.624,8.188
7.628,8.148
7.632,8.004
7.636,8.012
7.64,8.184
7.644,8.216
7.648,8.08
7.652,8.036
7.656,8.192
7.66,8.268
7.664,8.108
7.668,8.048
7.672,8.236
7.676,8.348
7.68,8.184
7.684,8.08
7.688,8.248
7.692,8.4
7.696,8.284
7.7,8.188
7.704,8.312
7.708,8.5
7.712,8.448
7.716,8.328
7.72,8.408
7.724,8.604
7.728,8.62
7.732,8.492
7.736,8.548
7.74,8.744
7.744,8.776
7.748,8.656
7.752,8.664
7.756,8.844
7.76,8.94
7.764,8.824
7.768,8.768
7.772,8.94
7.776,9.076
7.78,8.928
7.784,8.808
7.788,8.928
7.792,9.048
7.796,8.864
7.8,8.688
7.804,8.72
7.808,8.804
7.812,8.64
7.816,8.456
7.82,8.444
7.824,8.5
7.828,8.36
7.832,8.2
7.836,8.164
7.84,8.28
7.844,8.188
7.848,8.06
7.852,8.036
7.856,8.084
7.86,8.128
7.864,7.996
7.868,7.94
7.872,8.028
7.876,8.096
7.88,8.004
7.884,7.928
7.888,7.992
7.892,8.084
7.896,8.008
7.9,7.916
7.904,8
7.908,8.104
7.912,8.024
7.916,7.936
7.92,7.968
7.924,8.068
7.928,8.052
7.932,7.924
7.936,7.936
7.94,8.068
7.944,8.072
7.948,7.932
7.952,7.892
7.956,8.04
7.96,8.092
7.964,7.968
7.968,7.884
7.972,8.012
7.976,8.084
7.98,7.956
7.984,7.86
7.988,7.984
7.992,8.096
7.996,7.944
8,7.844
8.004,7.948
8.008,8.056
8.012,7.992
8.016,7.852
8.02,7.9
8.024,8.024
8.028,7.984
8.032,7.876
8.036,7.868
8.04,7.988
8.044,7.992
8.048,7.872
8.052,7.836
8.056,7.94
8.06,7.964
8.064,7.828
8.068,7.804
8.072,7.892
8.076,7.984
8.08,7.872
8.084,7.776
8.088,7.888
8.092,7.948
8.096,7.88
8.1,7.78
8.104,7.852
8.108,7.932
8.112,7.856
8.116,7.784
8.12,7.82
8.124,7.92
8.128,7.856
8.132,7.752
8.136,7.796
8.14,7.912
8.144,7.872
8.148,7.772
8.152,7.76
8.156,7.852
8.16,7.916
8.164,7.788
8.168,7.7
8.172,7.836
8.176,7.924
8.18,7.812
8.184,7.716
8.188,7.816
8.192,7.88
8.196,7.812
8.2,7.728
8.204,7.8
8.208,7.86
8.212,7.816
8.216,7.728
8.22,7.78
8.224,7.864
8.228,7.812
8.232,7.74
8.236,7.732
8.24,7.836
8.244,7.828
8.248,7.728
8.252,7.724
8.256,7.808
8.26,7.864
8.264,7.78
8.268,7.76
8.272,7.856
8.276,7.924
8.28,7.836
8.284,7.788
8.288,7.9
8.292,7.988
8.296,7.908
8.3,7.824
8.304,7.892
8.308,7.916
8.312,7.848
8.316,7.74
8.32,7.76
8.324,7.868
8.328,7.836
8.332,7.728
8.336,7.74
8.34,7.816
8.344,7.788
8.348,7.712
8.352,7.652
8.356,7.744
8.36,7.812
8.364,7.68
8.368,7.672
8.372,7.752
8.376,7.828
8.38,7.704
8.384,7.604
8.388,7.596
8.392,7.624
8.396,7.616
8.4,7.676
8.404,8.068
8.408,8.652
8.412,9.228
8.416,9.772
8.42,9.996
8.424,9.716
8.428,9.08
8.432,8.556
8.436,8.084
8.44,7.72
8.444,7.6
8.448,7.596
8.452,7.644
8.456,7.82
8.46,7.888
8.464,7.832
8.468,7.78
8.472,7.864
8.476,7.912
8.48,7.824
8.484,7.744
8.488,7.812
8.492,7.896
8.496,7.804
8.5,7.74
8.504,7.824
8.508,7.896
8.512,7.852
8.516,7.724
8.52,7.832
8.524,7.936
8.528,7.896
8.532,7.772
8.536,7.796
8.54,7.924
8.544,7.944
8.548,7.856
8.552,7.812
8.556,7.94
8.56,7.984
8.564,7.88
8.568,7.86
8.572,8
8.576,8.072
8.58,7.944
8.584,7.908
8.588,7.996
8.592,8.1
8.596,8.024
8.6,7.956
8.604,8.048
8.608,8.16
8.612,8.12
8.616,8.044
8.62,8.124
8.624,8.22
8.628,8.228
8.632,8.18
8.636,8.164
8.64,8.324
8.644,8.352
8.648,8.292
8.652,8.3
8.656,8.404
8.66,8.484
8.664,8.416
8.668,8.452
8.672,8.548
8.676,8.64
8.68,8.588
8.684,8.592
8.688,8.696
8.692,8.804
8.696,8.744
8.7,8.704
8.704,8.764
8.708,8.864
8.712,8.824
8.716,8.74
8.72,8.764
8.724,8.804
8.728,8.736
8.732,8.592
8.736,8.54
8.74,8.584
8.744,8.508
8.748,8.348
8.752,8.26
8.756,8.336
8.76,8.292
8.764,8.132
8.768,8.036
8.772,8.12
8.776,8.12
8.78,8.008
8.784,7.908
8.788,7.96
8.792,8.044
8.796,7.952
8.8,7.876
8.804,7.944
8.808,8.004
8.812,7.936
8.816,7.884
8.82,7.928
8.824,8.016
8.828,7.972
8.832,7.86
8.836,7.896
8.84,7.992
8.844,8
8.848,7.896
8.852,7.884
8.856,7.996
8.86,8.032
8.864,7.932
8.868,7.892
8.872,7.968
8.876,8.036
8.88,7.952
8.884,7.892
8.888,7.96
8.892,8.052
8.896,7.952
8.9,7.896
8.904,7.94
8.908,8.028
8.912,7.972
8.916,7.888
8.92,7.912
8.924,8.02
8.928,8
8.932,7.9
8.936,7.884
8.94,8.004
8.944,8.004
8.948,7.932
8.952,7.896
8.956,7.988
8.96,7.992
8.964,7.912
8.968,7.884
8.972,7.952
8.976,8.012
8.98,7.924
8.984,7.872
8.988,7.936
8.992,8.004
8.996,7.916
9,7.848
9.004,7.928
9.008,7.984
9.012,7.936
9.016,7.852
9.02,7.896
9.024,8.004
9.028,7.956
9.032,7.88
9.036,7.892
9.04,7.992
9.044,7.96
9.048,7.896
9.052,7.868
9.056,7.972
9.06,7.992
9.064,7.908
9.068,7.86
9.072,7.96
9.076,7.996
9.08,7.916
9.084,7.844
9.088,7.92
9.092,8.012
9.096,7.94
9.1,7.848
9.104,7.892
9.108,7.964
9.112,7.936
9.116,7.864
9.12,7.892
9.124,7.96
9.128,7.916
9.132,7.884
9.136,7.88
9.14,8
9.144,7.972
9.148,7.884
9.152,7.86
9.156,7.968
9.16,8.024
9.164,7.972
9.168,7.932
9.172,8.04
9.176,8.092
9.18,8.004
9.184,7.996
9.188,8.096
9.192,8.168
9.196,8.048
9.2,7.968
9.204,8.024
9.208,8.076
9.212,8.008
9.216,7.932
9.22,7.98
9.224,8.048
9.228,8.016
9.232,7.9
9.236,7.884
9.24,7.972
9.244,7.98
9.248,7.892
9.252,7.848
9.256,7.936
9.26,7.972
9.264,7.9
9.268,7.836
9.272,7.92
9.276,8.004
9.28,7.872
9.284,7.748
9.288,7.768
9.292,7.924
9.296,7.992
9.3,8.268
9.304,8.812
9.308,9.452
9.312,10.064
9.316,10.224
9.32,9.82
9.324,9.32
9.328,8.796
9.332,8.208
9.336,7.796
9.34,7.788
9.344,7.904
9.348,7.904
9.352,7.952
9.356,8.084
9.36,8.112
9.364,7.988
9.368,7.936
9.372,8.044
9.376,8.084
9.38,7.996
9.384,7.936
9.388,8.028
9.392,8.096
9.396,8.016
9.4,7.932
9.404,7.992
9.408,8.104
9.412,8.048
9.416,7.968
9.42,8.02
9.424,8.104
9.428,8.092
9.432,7.992
9.436,8.036
9.44,8.092
9.444,8.152
9.448,8.036
9.452,8.016
9.456,8.132
9.46,8.176
9.464,8.076
9.468,8.04
9.472,8.132
9.476,8.228
9.48,8.144
9.484,8.064
9.488,8.144
9.492,8.248
9.496,8.204
9.5,8.128
9.504,8.2
9.508,8.32
9.512,8.276
9.516,8.196
9.52,8.276
9.524,8.384
9.528,8.396
9.532,8.316
9.536,8.348
9.54,8.492
9.544,8.552
9.548,8.468
9.552,8.46
9.556,8.576
9.56,8.688
9.564,8.62
9.568,8.608
9.572,8.716
9.576,8.848
9.58,8.792
9.584,8.72
9.588,8.844
9.592,8.964
9.596,8.912
9.6,8.86
9.604,8.908
9.608,9.012
9.612,8.952
9.616,8.836
9.62,8.796
9.624,8.888
9.628,8.788
9.632,8.636
9.636,8.548
9.64,8.584
9.644,8.504
9.648,8.344
9.652,8.252
9.656,8.288
9.66,8.268
9.664,8.104
9.668,8.032
9.672,8.112
9.676,8.152
9.68,8.016
9.684,7.928
9.688,7.996
9.692,8.068
9.696,7.98
9.7,7.884
9.704,7.956
9.708,8.032
9.712,7.992
9.716,7.888
9.72,7.908
9.724,8.012
9.728,7.98
9.732,7.9
9.736,7.9
9.74,7.98
9.744,7.992
9.748,7.904
9.752,7.896
9.756,7.988
9.76,8.02
9.764,7.932
9.768,7.868
9.772,7.964
9.776,8.044
9.78,7.928
9.784,7.864
9.788,7.956
9.792,8.04
9.796,7.932
9.8,7.86
9.804,7.916
9.808,8.028
9.812,7.944
9.816,7.872
9.82,7.904
9.824,8.004
9.828,7.956
9.832,7.84
9.836,7.848
9.84,7.956
9.844,7.952
9.848,7.848
9.852,7.796
9.856,7.912
9.86,7.984
9.864,7.844
9.868,7.772
9.872,7.888
9.876,7.976
9.88,7.856
9.884,7.764
9.888,7.86
9.892,7.952
9.896,7.828
9.9,7.76
9.904,7.836
9.908,7.936
9.912,7.86
9.916,7.752
9.92,7.796
9.924,7.892
9.928,7.872
9.932,7.752
9.936,7.772
9.94,7.868
9.944,7.912
9.948,7.788
9.952,7.716
9.956,7.828
9.96,7.912
9.964,7.752
9.968,7.688
9.972,7.832
9.976,7.9
9.98,7.772
9.984,7.644
9.988,7.764
9.992,7.912
9.996,7.808
10,7.636
10.004,7.744
10.008,7.876
10.012,7.804
10.016,7.66
10.02,7.704
10.024,7.852
10.028,7.848
10.032,7.712
10.036,7.704
10.04,7.892
10.044,7.904
10.048,7.744
10.052,7.72
10.056,7.912
10.06,8.008
10.064,7.828
10.068,7.724
10.072,7.868
10.076,7.936
10.08,7.824
10.084,7.672
10.088,7.76
10.092,7.9
10.096,7.772
10.1,7.636
10.104,7.684
10.108,7.824
10.112,7.728
10.116,7.596
10.12,7.624
10.124,7.788
10.128,7.772
10.132,7.616
10.136,7.628
10.14,7.804
10.144,7.824
10.148,7.636
10.152,7.524
10.156,7.592
10.16,7.668
10.164,7.604
10.168,7.736
10.172,8.284
10.176,8.98
10.18,9.508
10.184,9.82
10.188,9.828
10.192,9.428
10.196,8.804
10.2,8.24
10.204,7.768
10.208,7.632
10.212,7.56
10.216,7.504
10.22,7.632
10.224,7.856
10.228,7.86
10.232,7.712
10.236,7.692
10.24,7.86
10.244,7.868
10.248,7.728
10.252,7.644
10.256,7.816
10.26,7.9
10.264,7.772
10.268,7.648
10.272,7.804
10.276,7.916
10.28,7.768
10.284,7.652
10.288,7.768
10.292,7.928
10.296,7.82
10.3,7.676
10.304,7.76
10.308,7.948
10.312,7.876
10.316,7.728
10.32,7.748
10.324,7.916
10.328,7.936
10.332,7.788
10.336,7.764
10.34,7.92
10.344,7.956
10.348,7.804
10.352,7.736
10.356,7.932
10.36,8.024
10.364,7.872
10.368,7.78
10.372,7.968
10.376,8.112
10.38,7.98
10.384,7.868
10.388,8.02
10.392,8.188
10.396,8.092
10.4,7.968
10.404,8.092
10.408,8.252
10.412,8.252
10.416,8.12
10.42,8.188
10.424,8.412
10.428,8.428
10.432,8.296
10.436,8.304
10.44,8.508
10.444,8.604
10.448,8.448
10.452,8.396
10.456,8.604
10.46,8.748
10.464,8.58
10.468,8.488
10.472,8.648
10.476,8.84
10.48,8.668
10.484,8.496
10.488,8.588
10.492,8.7
10.496,8.532
10.5,8.328
10.504,8.344
10.508,8.428
10.512,8.308
10.516,8.06
10.52,8.048
10.524,8.152
10.528,8.08
10.532,7.88
10.536,7.852
10.54,7.976
10.544,8.012
10.548,7.8
10.552,7.708
10.556,7.86
10.56,7.972
10.564,7.808
10.568,7.672
10.572,7.82
10.576,7.964
10.58,7.82
10.584,7.704
10.588,7.824
10.592,7.932
10.596,7.832
10.6,7.696
10.604,7.776
10.608,7.952
10.612,7.896
10.616,7.728
10.62,7.76
10.624,7.928
10.628,7.912
10.632,7.748
10.636,7.712
10.64,7.896
10.644,7.94
10.648,7.788
10.652,7.704
10.656,7.84
10.66,7.972
10.664,7.808
10.668,7.704
10.672,7.848
10.676,7.988
10.68,7.808
10.684,7.684
10.688,7.796
10.692,7.964
10.696,7.848
10.7,7.676
10.704,7.772
10.708,7.932
10.712,7.872
10.716,7.712
10.72,7.716
10.724,7.884
10.728,7.908
10.732,7.72
10.736,7.68
10.74,7.872
10.744,7.92
10.748,7.732
10.752,7.672
10.756,7.844
10.76,7.952
10.764,7.8
10.768,7.66
10.772,7.824
10.776,7.964
10.78,7.808
10.784,7.68
10.788,7.792
10.792,7.956
10.796,7.84
10.8,7.688
10.804,7.756
10.808,7.924
10.812,7.86
10.816,7.7
10.82,7.744
10.824,7.92
10.828,7.912
10.832,7.732
10.836,7.712
10.84,7.876
10.844,7.936
10.848,7.78
10.852,7.708
10.856,7.912
10.86,8.048
10.864,7.908
10.868,7.756
10.872,7.904
10.876,8.068
10.88,7.936
10.884,7.86
10.888,7.968
10.892,8.108
10.896,7.964
10.9,7.792
10.904,7.852
10.908,7.996
10.912,7.916
10.916,7.764
10.92,7.792
10.924,7.968
10.928,7.952
10.932,7.732
10.936,7.684
10.94,7.856
10.944,7.924
10.948,7.756
10.952,7.68
10.956,7.828
10.96,7.94
10.964,7.788
10.968,7.676
10.972,7.828
10.976,7.964
10.98,7.72
10.984,7.544
10.988,7.688
10.992,7.968
10.996,8.072
11,8.396
11.004,8.992
11.008,9.804
11.012,10.212
11.016,9.928
11.02,9.336
11.024,8.96
11.028,8.488
11.032,7.804
11.036,7.52
11.04,7.792
11.044,7.924
11.048,7.824
11.052,7.78
11.056,7.988
11.06,8.088
11.064,7.896
11.068,7.756
11.072,7.948
11.076,8.072
11.08,7.916
11.084,7.74
11.088,7.888
11.092,8.04
11.096,7.952
11.1,7.804
11.104,7.868
11.108,8.032
11.112,7.996
11.116,7.812
11.12,7.852
11.124,8.024
11.128,8.048
11.132,7.876
11.136,7.828
11.14,8.02
11.144,8.088
11.148,7.924
11.152,7.836
11.156,8.024
11.16,8.152
11.164,8.012
11.168,7.868
11.172,8.04
11.176,8.192
11.18,8.072
11.184,7.932
11.188,8.072
11.192,8.208
11.196,8.136
11.2,8.044
11.204,8.112
11.208,8.3
11.212,8.26
11.216,8.116
11.22,8.152
11.224,8.372
11.228,8.392
11.232,8.236
11.236,8.248
11.24,8.46
11.244,8.556
11.248,8.424
11.252,8.368
11.256,8.584
11.26,8.716
11.264,8.6
11.268,8.524
11.272,8.704
11.276,8.868
11.28,8.756
11.284,8.656
11.288,8.8
11.292,8.996
11.296,8.872
11.3,8.74
11.304,8.82
11.308,8.964
11.312,8.92
11.316,8.692
11.32,8.656
11.324,8.756
11.328,8.7
11.332,8.46
11.336,8.368
11.34,8.468
11.344,8.472
11.348,8.224
11.352,8.112
11.356,8.224
11.36,8.284
11.364,8.072
11.368,7.94
11.372,8.076
11.376,8.204
11.38,8.028
11.384,7.844
11.388,7.968
11.392,8.16
11.396,8.044
11.4,7.884
11.404,7.94
11.408,8.104
11.412,8.036
11.416,7.888
11.42,7.888
11.424,8.076
11.428,8.064
11.432,7.904
11.436,7.88
11.44,8.024
11.444,8.104
11.448,7.94
11.452,7.884
11.456,8.004
11.46,8.152
11.464,7.996
11.468,7.876
11.472,7.996
11.476,8.136
11.48,8.004
11.484,7.872
11.488,8
11.492,8.136
11.496,8.044
11.5,7.912
11.504,7.976
11.508,8.08
11.512,8.068
11.516,7.908
11.52,7.936
11.524,8.072
11.528,8.104
11.532,7.932
11.536,7.884
11.54,8.064
11.544,8.136
11.548,7.928
11.552,7.844
11.556,7.996
11.56,8.128
11.564,7.96
11.568,7.832
11.572,7.976
11.576,8.112
11.58,7.96
11.584,7.844
11.588,7.96
11.592,8.104
11.596,7.984
11.6,7.836
11.604,7.916
11.608,8.096
11.612,8.024
11.616,7.848
11.62,7.888
11.624,8.06
11.628,8.028
11.632,7.884
11.636,7.852
11.64,8.036
11.644,8.056
11.648,7.92
11.652,7.816
11.656,8.004
11.66,8.072
11.664,7.892
11.668,7.804
11.672,7.956
11.676,8.084
11.68,7.928
11.684,7.804
11.688,7.924
11.692,8.096
11.696,7.952
11.7,7.828
11.704,7.92
11.708,8.104
11.712,8.076
11.716,7.972
11.72,7.964
11.724,8.124
11.728,8.12
11.732,7.964
11.736,7.98
11.74,8.164
11.744,8.244
11.748,8.036
11.752,7.896
11.756,8.076
11.76,8.152
11.764,7.96
11.768,7.82
11.772,7.972
11.776,8.12
11.78,7.956
11.784,7.816
11.788,7.908
11.792,8.052
11.796,7.944
11.8,7.828
11.804,7.864
11.808,8.028
11.812,7.96
11.816,7.816
11.82,7.856
11.824,8.044
11.828,8.028
11.832,7.84
11.836,7.736
11.84,7.856
11.844,7.944
11.848,7.888
11.852,8.068
11.856,8.696
11.86,9.332
11.864,9.848
11.868,10.124
11.872,10.112
11.876,9.62
11.88,8.948
11.884,8.34
11.888,7.956
11.892,7.9
11.896,7.876
11.9,7.84
11.904,7.992
11.908,8.184
11.912,8.112
11.916,7.972
11.92,7.968
11.924,8.152
11.928,8.144
11.932,7.96
11.936,7.94
11.94,8.104
11.944,8.172
11.948,8.004
11.952,7.92
11.956,8.104
11.96,8.228
11.964,8.012
11.968,7.912
11.972,8.08
11.976,8.212
11.98,8.06
11.984,7.948
11.988,8.06
11.992,8.232
11.996,8.124
12,7.968
12.004,8.056
12.008,8.228
12.012,8.2
12.016,8.052
12.02,8.076
12.024,8.248
12.028,8.248
12.032,8.112
12.036,8.096
12.04,8.252
12.044,8.332
12.048,8.188
12.052,8.1
12.056,8.308
12.06,8.412
12.064,8.276
12.068,8.16
12.072,8.356
12.076,8.508
12.08,8.364
12.084,8.272
12.088,8.416
12.092,8.58
12.096,8.532
12.1,8.396
12.104,8.496
12.108,8.68
12.112,8.68
12.116,8.572
12.12,8.624
12.124,8.824
12.128,8.84
12.132,8.732
12.136,8.744
12.14,8.952
12.144,9.024
12.148,8.856
12.152,8.788
12.156,8.992
12.16,9.072
12.164,8.9
12.168,8.748
12.172,8.852
12.176,8.944
12.18,8.74
12.184,8.532
12.188,8.584
12.192,8.672
12.196,8.492
12.2,8.288
12.204,8.284
12.208,8.388
12.212,8.296
12.216,8.068
12.22,8.076
12.224,8.232
12.228,8.184
12.232,8
12.236,7.936
12.24,8.112
12.244,8.176
12.248,7.976
12.252,7.864
12.256,8.028
12.26,8.156
12.264,7.992
12.268,7.892
12.272,8.012
12.276,8.132
12.28,8.004
12.284,7.856
12.288,7.988
12.292,8.148
12.296,8.016
12.3,7.876
12.304,7.948
12.308,8.12
12.312,8.064
12.316,7.9
12.32,7.9
12.324,8.06
12.328,8.072
12.332,7.9
12.336,7.86
12.34,8.036
12.344,8.076
12.348,7.912
12.352,7.816
12.356,8.004
12.36,8.1
12.364,7.92
12.368,7.84
12.372,7.968
12.376,8.088
12.38,7.948
12.384,7.812
12.388,7.9
12.392,8.068
12.396,7.98
12.4,7.824
12.404,7.856
12.408,8.024
12.412,7.976
12.416,7.82
12.42,7.812
12.424,7.972
12.428,7.996
12.432,7.812
12.436,7.76
12.44,7.968
12.444,7.988
12.448,7.812
12.452,7.74
12.456,7.9
12.46,8.024
12.464,7.84
12.468,7.712
12.472,7.86
12.476,7.988
12.48,7.848
12.484,7.736
12.488,7.836
12.492,7.98
12.496,7.876
12.5,7.736
12.504,7.804
12.508,7.932
12.512,7.884
12.516,7.724
12.52,7.772
12.524,7.936
12.528,7.94
12.532,7.76
12.536,7.72
12.54,7.884
12.544,7.956
12.548,7.784
12.552,7.708
12.556,7.848
12.56,7.96
12.564,7.796
12.568,7.676
12.572,7.832
12.576,7.932
12.58,7.812
12.584,7.672
12.588,7.788
12.592,7.932
12.596,7.848
12.6,7.724
12.604,7.804
12.608,8.02
12.612,7.96
12.616,7.768
12.62,7.792
12.624,7.956
12.628,8.032
12.632,7.908
12.636,7.84
12.64,8
12.644,8.036
12.648,7.832
12.652,7.728
12.656,7.868
12.66,7.984
12.664,7.8
12.668,7.66
12.672,7.812
12.676,7.956
12.68,7.788
12.684,7.628
12.688,7.732
12.692,7.9
12.696,7.792
12.7,7.644
12.704,7.712
12.708,7.864
12.712,7.828
12.716,7.672
12.72,7.68
12.724,7.832
12.728,7.764
12.732,7.508
12.736,7.508
12.74,7.812
12.744,8.188
12.748,8.452
12.752,8.972
12.756,9.812
12.76,10.212
12.764,9.736
12.768,9.028
12.772,8.684
12.776,8.38
12.78,7.74
12.784,7.436
12.788,7.604
12.792,7.864
12.796,7.8
12.8,7.724
12.804,7.812
12.808,7.948
12.812,7.908
12.816,7.732
12.82,7.748
12.824,7.936
12.828,7.948
12.832,7.772
12.836,7.744
12.84,7.912
12.844,7.992
12.848,7.8
12.852,7.712
12.856,7.9
12.86,8.016
12.864,7.868
12.868,7.752
12.872,7.876
12.876,8.032
12.88,7.896
12.884,7.776
12.888,7.888
12.892,8.064
12.896,7.944
12.9,7.836
12.904,7.904
12.908,8.08
12.912,8.036
12.916,7.868
12.92,7.888
12.924,8.072
12.928,8.108
12.932,7.936
12.936,7.904
12.94,8.112
12.944,8.164
12.948,8.012
12.952,7.964
12.956,8.14
12.96,8.26
12.964,8.1
12.968,8.036
12.972,8.204
12.976,8.368
12.98,8.252
12.984,8.164
12.988,8.296
12.992,8.492
12.996,8.42
13,8.312
13.004,8.4
13.008,8.604
13.012,8.584
13.016,8.472
13.02,8.52
13.024,8.716
13.028,8.78
13.032,8.612
13.036,8.628
13.04,8.812
13.044,8.908
13.048,8.748
13.052,8.656
13.056,8.804
13.06,8.9
13.064,8.672
13.068,8.536
13.072,8.632
13.076,8.696
13.08,8.492
13.084,8.276
13.088,8.292
13.092,8.408
13.096,8.24
13.1,8.048
13.104,8.072
13.108,8.184
13.112,8.076
13.116,7.908
13.12,7.904
13.124,8.052
13.128,8.052
13.132,7.868
13.136,7.836
13.14,8
13.144,8.048
13.148,7.868
13.152,7.808
13.156,7.956
13.16,8.08
13.164,7.912
13.168,7.78
13.172,7.936
13.176,8.048
13.18,7.928
13.184,7.804
13.188,7.912
13.192,8.052
13.196,7.928
13.2,7.824
13.204,7.892
13.208,8.076
13.212,8
13.216,7.84
13.22,7.844
13.224,8.028
13.228,8.036
13.232,7.82
13.236,7.808
13.24,7.976
13.244,8.072
13.248,7.832
13.252,7.772
13.256,7.932
13.26,8.06
13.264,7.876
13.268,7.764
13.272,7.9
13.276,8.044
13.28,7.884
13.284,7.744
13.288,7.844
13.292,8.044
13.296,7.932
13.3,7.776
13.304,7.844
13.308,8.004
13.312,7.98
13.316,7.8
13.32,7.788
13.324,7.956
13.328,8
13.332,7.796
13.336,7.784
13.34,7.94
13.344,8.008
13.348,7.832
13.352,7.752
13.356,7.916
13.36,8.008
13.364,7.844
13.368,7.724
13.372,7.848
13.376,8.028
13.38,7.844
13.384,7.732
13.388,7.852
13.392,7.98
13.396,7.892
13.4,7.748
13.404,7.812
13.408,7.964
13.412,7.92
13.416,7.776
13.42,7.796
13.424,8.008
13.428,8.052
13.432,7.848
13.436,7.844
13.44,7.992
13.444,8.068
13.448,7.856
13.452,7.848
13.456,8.06
13.46,8.172
13.464,7.976
13.468,7.816
13.472,7.94
13.476,8.088
13.48,7.9
13.484,7.76
13.488,7.86
13.492,8.028
13.496,7.892
13.5,7.748
13.504,7.82
13.508,7.96
13.512,7.88
13.516,7.68
13.52,7.712
13.524,7.884
13.528,7.908
13.532,7.712
13.536,7.684
13.54,7.876
13.544,7.94
13.548,7.784
13.552,7.66
13.556,7.748
13.56,7.828
13.564,7.668
13.568,7.64
13.572,8.02
13.576,8.612
13.58,8.996
13.584,9.492
13.588,10.104
13.592,10.152
13.596,9.476
13.6,8.756
13.604,8.376
13.608,8.028
13.612,7.676
13.616,7.572
13.62,7.68
13.624,7.924
13.628,7.984
13.632,7.848
13.636,7.788
13.64,7.956
13.644,8.016
13.648,7.816
13.652,7.724
13.656,7.908
13.66,8.016
13.664,7.856
13.668,7.74
13.672,7.896
13.676,8.048
13.68,7.876
13.684,7.748
13.688,7.848
13.692,8.052
13.696,7.932
13.7,7.772
13.704,7.852
13.708,8.016
13.712,7.984
13.716,7.84
13.72,7.844
13.724,8.036
13.728,8.072
13.732,7.872
13.736,7.86
13.74,8.028
13.744,8.104
13.748,7.92
13.752,7.86
13.756,8.064
13.76,8.188
13.764,8.036
13.768,7.928
13.772,8.064
13.776,8.24
13.78,8.096
13.784,8.008
13.788,8.136
13.792,8.3
13.796,8.236
13.8,8.104
13.804,8.192
13.808,8.4
13.812,8.368
13.816,8.228
13.82,8.308
13.824,8.508
13.828,8.544
13.832,8.412
13.836,8.408
13.84,8.632
13.844,8.728
13.848,8.568
13.852,8.532
13.856,8.712
13.86,8.884
13.864,8.724
13.868,8.644
13.872,8.8
13.876,8.944
13.88,8.796
13.884,8.664
13.888,8.736
13.892,8.848
13.896,8.712
13.9,8.496
13.904,8.484
13.908,8.612
13.912,8.492
13.916,8.256
13.92,8.196
13.924,8.328
13.928,8.292
13.932,8.06
13.936,7.976
13.94,8.128
13.944,8.148
13.948,8.004
13.952,7.884
13.956,8.004
13.96,8.132
13.964,7.932
13.968,7.828
13.972,7.976
13.976,8.088
13.98,7.956
13.984,7.84
13.988,7.94
13.992,8.104
13.996,8.008
14,7.828
14.004,7.876
14.008,8.068
14.012,8.044
14.016,7.876
14.02,7.88
14.024,8.064
14.028,8.076
14.032,7.896
14.036,7.876
14.04,8.048
14.044,8.116
14.048,7.936
14.052,7.844
14.056,8.032
14.06,8.14
14.064,7.952
14.068,7.844
14.072,8.016
14.076,8.136
14.08,8.012
14.084,7.868
14.088,7.976
14.092,8.16
14.096,8.04
14.1,7.888
14.104,7.976
14.108,8.128
14.112,8.076
14.116,7.904
14.12,7.908
14.124,8.096
14.128,8.124
14.132,7.924
14.136,7.892
14.14,8.084
14.144,8.168
14.148,7.94
14.152,7.828
14.156,7.968
14.16,8.152
14.164,8.004
14.168,7.948
14.172,8.088
14.176,8.192
14.18,7.96
14.184,7.804
14.188,7.96
14.192,8.248
14.196,8.104
14.2,7.884
14.204,7.932
14.208,8.08
14.212,8.12
14.216,7.932
14.22,7.928
14.224,8.2
14.228,8.256
14.232,8.1
14.236,8.016
14.24,8.16
14.244,8.216
14.248,8.052
14.252,7.928
14.256,8.1
14.26,8.204
14.264,8.064
14.268,7.888
14.272,7.912
14.276,8.128
14.28,7.968
14.284,7.844
14.288,7.928
14.292,8.016
14.296,7.852
14.3,7.696
14.304,7.724
14.308,7.944
14.312,7.976
14.316,7.828
14.32,7.832
14.324,7.988
14.328,7.9
14.332,7.668
14.336,7.696
14.34,7.996
14.344,8.348
14.348,8.572
14.352,8.936
14.356,9.664
14.36,10.28
14.364,10.068
14.368,9.328
14.372,8.928
14.376,8.636
14.38,7.948
14.384,7.552
14.388,7.72
14.392,7.988
14.396,8.048
14.4,7.936
14.404,7.964
14.408,8.092
14.412,7.984
14.416,7.848
14.42,7.86
14.424,8.084
14.428,8.08
14.432,7.852
14.436,7.776
14.44,7.94
14.444,8.036
14.448,7.88
14.452,7.764
14.456,7.956
14.46,8.152
14.464,7.996
14.468,7.84
14.472,7.988
14.476,8.108
14.48,8.004
14.484,7.876
14.488,7.96
14.492,8.16
14.496,8.124
14.5,7.968
14.504,8
14.508,8.112
14.512,8.076
14.516,7.916
14.52,7.924
14.524,8.136
14.528,8.168
14.532,8.008
14.536,7.956
14.54,8.14
14.544,8.232
14.548,8.076
14.552,7.972
14.556,8.196
14.56,8.356
14.564,8.22
14.568,8.112
14.572,8.212
14.576,8.424
14.58,8.324
14.584,8.208
14.588,8.352
14.592,8.528
14.596,8.496
14.6,8.4
14.604,8.468
14.608,8.644
14.612,8.616
14.616,8.436
14.62,8.488
14.624,8.708
14.628,8.832
14.632,8.7
14.636,8.66
14.64,8.876
14.644,8.964
14.648,8.808
14.652,8.696
14.656,8.844
14.66,8.928
14.664,8.7
14.668,8.536
14.672,8.64
14.676,8.74
14.68,8.54
14.684,8.3
14.688,8.332
14.692,8.4
14.696,8.26
14.7,8.04
14.704,8.08
14.708,8.316
14.712,8.352
14.716,8.148
14.72,8.052
14.724,8.116
14.728,8.088
14.732,7.868
14.736,7.772
14.74,7.964
14.744,8.056
14.748,7.912
14.752,7.82
14.756,8.004
14.76,8.104
14.764,8.004
14.768,7.864
14.772,8.02
14.776,8.18
14.78,8.092
14.784,8.072
14.788,8.164
14.792,8.208
14.796,8.048
14.8,7.912
14.804,7.892
14.808,8
14.812,8.076
14.816,8.124
14.82,8.124
14.824,8.244
14.828,8.06
14.832,7.768
14.836,7.764
14.84,8.016
14.844,8.144
14.848,7.912
14.852,7.868
14.856,8.096
14.86,8.344
14.864,8.268
14.868,8.092
14.872,8.052
14.876,8.24
14.88,8.148
14.884,7.92
14.888,8.148
14.892,8.652
14.896,8.528
14.9,7.756
14.904,7.408
14.908,7.708
14.912,7.8
14.916,7.728
14.92,7.744
14.924,7.956
14.928,8.048
14.932,7.892
14.936,7.84
14.94,8.04
14.944,8.132
14.948,7.964
14.952,7.884
14.956,8.048
14.96,8.156
14.964,7.972
14.968,7.848
14.972,7.952
14.976,8.14
14.98,8.092
14.984,7.964
14.988,7.964
14.992,8.084
14.996,8.032
15,7.932
15.004,7.928
15.008,8.02
15.012,8.024
15.016,7.912
15.02,7.94
15.024,8.128
15.028,8.184
15.032,8.024
15.036,7.916
15.04,8.12
15.044,8.168
15.048,7.94
15.052,7.832
15.056,8.052
15.06,8.236
15.064,8.312
15.068,8.196
15.072,7.924
15.076,7.868
15.08,7.732
15.084,7.548
15.088,7.608
15.092,7.776
15.096,7.764
15.1,7.668
15.104,7.756
15.108,7.932
15.112,7.916
15.116,7.764
15.12,7.9
15.124,8.068
15.128,8
15.132,7.904
15.136,7.856
15.14,8.168
15.144,8.608
15.148,8.964
15.152,9.564
15.156,10.296
15.16,10.212
15.164,9.228
15.168,8.62
15.172,8.28
15.176,7.88
15.18,7.608
15.184,7.544
15.188,7.684
15.192,7.92
15.196,7.896
15.2,7.78
15.204,7.94
15.208,8.26
15.212,8.168
15.216,7.876
15.22,7.712
15.224,7.892
15.228,7.964
15.232,7.8
15.236,7.776
15.24,8.092
15.244,8.336
15.248,7.984
15.252,7.588
15.256,7.74
15.26,7.976
15.264,7.864
15.268,7.752
15.272,7.904
15.276,8.112
15.28,7.992
15.284,7.912
15.288,8.024
15.292,8.136
15.296,7.964
15.3,7.744
15.304,7.796
15.308,8.028
15.312,8.02
15.316,7.924
15.32,7.964
15.324,8.148
15.328,8.204
15.332,8.008
15.336,7.952
15.34,8.128
15.344,8.236
15.348,8.072
15.352,7.972
15.356,8.176
15.36,8.32
15.364,8.172
15.368,8.064
15.372,8.22
15.376,8.436
15.38,8.312
15.384,8.216
15.388,8.368
15.392,8.568
15.396,8.524
15.4,8.396
15.404,8.476
15.408,8.708
15.412,8.696
15.416,8.588
15.42,8.636
15.424,8.836
15.428,8.876
15.432,8.744
15.436,8.704
15.44,8.896
15.444,8.996
15.448,8.832
15.452,8.708
15.456,8.816
15.46,8.92
15.464,8.728
15.468,8.496
15.472,8.6
15.476,8.672
15.48,8.496
15.484,8.292
15.488,8.308
15.492,8.412
15.496,8.296
15.5,8.116
15.504,8.112
15.508,8.276
15.512,8.204
15.516,8
15.52,7.98
15.524,8.168
15.528,8.192
15.532,7.984
15.536,7.928
15.54,8.096
15.544,8.18
15.548,8.04
15.552,7.94
15.556,8.092
15.56,8.208
15.564,8.052
15.568,7.924
15.572,8.06
15.576,8.216
15.58,8.104
15.584,7.956
15.588,8.048
15.592,8.24
15.596,8.14
15.6,7.972
15.604,8.032
15.608,8.224
15.612,8.212
15.616,8.028
15.62,8
15.624,8.168
15.628,8.24
15.632,8.052
15.636,7.996
15.64,8.18
15.644,8.248
15.648,8.064
15.652,7.972
15.656,8.112
15.66,8.248
15.664,8.072
15.668,7.916
15.672,8.056
15.676,8.24
15.68,8.064
15.684,7.948
15.688,8
15.692,8.192
15.696,8.12
15.7,7.908
15.704,7.956
15.708,8.164
15.712,8.092
15.716,7.944
15.72,7.924
15.724,8.116
15.728,8.144
15.732,7.94
15.736,7.856
15.74,8.068
15.744,8.164
15.748,7.98
15.752,7.856
15.756,8.036
15.76,8.176
15.764,8.008
15.768,7.852
15.772,7.968
15.776,8.132
15.78,7.992
15.784,7.872
15.788,7.948
15.792,8.12
15.796,8.024
15.8,7.876
15.804,7.912
15.808,8.08
15.812,8.044
15.816,7.88
15.82,7.88
15.824,8.08
15.828,8.068
15.832,7.904
15.836,7.844
15.84,7.988
15.844,8.12
15.848,7.928
15.852,7.808
15.856,7.964
15.86,8.1
15.864,7.944
15.868,7.808
15.872,7.932
15.876,8.128
15.88,8.024
15.884,7.892
15.888,8.02
15.892,8.204
15.896,8.056
15.9,7.896
15.904,7.976
15.908,8.204
15.912,8.196
15.916,8.012
15.92,7.964
15.924,8.104
15.928,8.144
15.932,7.94
15.936,7.852
15.94,8.004
15.944,8.12
15.948,7.928
15.952,7.8
15.956,7.932
15.96,8.036
15.964,7.86
15.968,7.708
15.972,7.84
15.976,8.016
15.98,7.876
15.984,7.728
15.988,7.808
15.992,8
15.996,7.904
16,7.728
16.004,7.764
16.008,7.94
16.012,7.812
16.016,7.596
16.02,7.652
16.024,7.956
16.028,8.328
16.032,8.632
16.036,9.172
16.04,9.956
16.044,10.3
16.048,9.736
16.052,9.024
16.056,8.704
16.06,8.352
16.064,7.712
16.068,7.468
16.072,7.688
16.076,7.968
16.08,7.888
16.084,7.768
16.088,7.872
16.092,8.02
16.096,7.964
16.1,7.792
16.104,7.852
16.108,8.004
16.112,7.968
16.116,7.824
16.12,7.804
16.124,7.988
16.128,8.04
16.132,7.836
16.136,7.784
16.14,7.98
16.144,8.064
16.148,7.892
16.152,7.784
16.156,7.948
16.16,8.084
16.164,7.912
16.168,7.8
16.172,7.904
16.176,8.108
16.18,7.96
16.184,7.812
16.188,7.948
16.192,8.088
16.196,8.04
16.2,7.904
16.204,7.94
16.208,8.104
16.212,8.116
16.216,7.932
16.22,7.952
16.224,8.12
16.228,8.192
16.232,8.02
16.236,7.956
16.24,8.164
16.244,8.264
16.248,8.124
16.252,8.056
16.256,8.204
16.26,8.364
16.264,8.252
16.268,8.148
16.272,8.316
16.276,8.508
16.28,8.396
16.284,8.304
16.288,8.428
16.292,8.62
16.296,8.556
16.3,8.452
16.304,8.52
16.308,8.708
16.312,8.732
16.316,8.608
16.32,8.62
16.324,8.816
16.328,8.884
16.332,8.712
16.336,8.652
16.34,8.796
16.344,8.86
16.348,8.66
16.352,8.504
16.356,8.596
16.36,8.64
16.364,8.416
16.368,8.196
16.372,8.268
16.376,8.356
16.38,8.18
16.384,7.988
16.388,8.024
16.392,8.156
16.396,8.044
16.4,7.872
16.404,7.872
16.408,8.032
16.412,8.024
16.416,7.84
16.42,7.8
16.424,7.964
16.428,8.012
16.432,7.832
16.436,7.74
16.44,7.928
16.444,8.032
16.448,7.84
16.452,7.728
16.456,7.892
16.46,8.032
16.464,7.904
16.468,7.744
16.472,7.888
16.476,8.02
16.48,7.912
16.484,7.788
16.488,7.88
16.492,8.02
16.496,7.96
16.5,7.792
16.504,7.836
16.508,8.004
16.512,7.98
16.516,7.828
16.52,7.796
16.524,7.964
16.528,8.02
16.532,7.828
16.536,7.764
16.54,7.96
16.544,8.032
16.548,7.888
16.552,7.74
16.556,7.908
16.56,8.04
16.564,7.888
16.568,7.768
16.572,7.9
16.576,8.044
16.58,7.908
16.584,7.732
16.588,7.844
16.592,8.02
16.596,7.924
16.6,7.776
16.604,7.756
16.608,7.988
16.612,7.98
16.616,7.788
16.62,7.768
16.624,7.952
16.628,7.992
16.632,7.82
16.636,7.752
16.64,7.9
16.644,8.088
16.648,7.836
16.652,7.724
16.656,7.884
16.66,8.02
16.664,7.884
16.668,7.732
16.672,7.848
16.676,8.016
16.68,7.904
16.684,7.8
16.688,7.88
16.692,8.06
16.696,8.048
16.7,7.88
16.704,7.916
16.708,8.08
16.712,8.068
16.716,7.972
16.72,7.964
16.724,8.14
16.728,8.136
16.732,7.952
16.736,7.9
16.74,8.036
16.744,8.108
16.748,7.928
16.752,7.812
16.756,7.96
16.76,8.076
16.764,7.936
16.768,7.784
16.772,7.868
16.776,7.996
16.78,7.9
16.784,7.788
16.788,7.848
16.792,8.004
16.796,7.948
16.8,7.808
16.804,7.852
16.808,8
16.812,7.992
16.816,7.816
16.82,7.736
16.824,7.848
16.828,7.896
16.832,7.86
16.836,8.004
16.84,8.568
16.844,9.256
16.848,9.724
16.852,10.02
16.856,10.1
16.86,9.64
16.864,8.988
16.868,8.392
16.872,7.932
16.876,7.872
16.88,7.796
16.884,7.768
16.888,7.924
16.892,8.144
16.896,8.064
16.9,7.92
16.904,7.964
16.908,8.144
16.912,8.124
16.916,7.932
16.92,7.9
16.924,8.06
16.928,8.148
16.932,7.976
16.936,7.884
16.94,8.052
16.944,8.172
16.948,8.008
16.952,7.896
16.956,8.044
16.96,8.168
16.964,8.036
16.968,7.884
16.972,8.028
16.976,8.188
16.98,8.072
16.984,7.936
16.988,8.012
16.992,8.196
16.996,8.104
17,7.996
17.004,8.024
17.008,8.188
17.012,8.224
17.016,8.044
17.02,8.048
17.024,8.22
17.028,8.292
17.032,8.12
17.036,8.072
17.04,8.256
17.044,8.384
17.048,8.216
17.052,8.128
17.056,8.3
17.06,8.46
17.064,8.336
17.068,8.212
17.072,8.368
17.076,8.552
17.08,8.5
17.084,8.388
17.088,8.472
17.092,8.672
17.096,8.628
17.1,8.544
17.104,8.584
17.108,8.8
17.112,8.836
17.116,8.7
17.12,8.708
17.124,8.892
17.128,8.968
17.132,8.808
17.136,8.744
17.14,8.916
17.144,8.996
17.148,8.828
17.152,8.68
17.156,8.776
17.16,8.872
17.164,8.656
17.168,8.476
17.172,8.508
17.176,8.56
17.18,8.388
17.184,8.212
17.188,8.224
17.192,8.32
17.196,8.236
17.2,8.056
17.204,8.04
17.208,8.192
17.212,8.172
17.216,7.968
17.22,7.936
17.224,8.08
17.228,8.148
17.232,7.956
17.236,7.864
17.24,8.036
17.244,8.136
17.248,7.98
17.252,7.872
17.256,7.996
17.26,8.152
17.264,8.02
17.268,7.888
17.272,8.016
17.276,8.152
17.28,8.036
17.284,7.908
17.288,7.98
17.292,8.148
17.296,8.104
17.3,7.936
17.304,7.94
17.308,8.116
17.312,8.136
17.316,7.956
17.32,7.928
17.324,8.096
17.328,8.148
17.332,7.98
17.336,7.904
17.34,8.08
17.344,8.168
17.348,7.988
17.352,7.892
17.356,8.024
17.36,8.164
17.364,7.992
17.368,7.872
17.372,7.96
17.376,8.148
17.38,8.036
17.384,7.896
17.388,7.956
17.392,8.104
17.396,8.048
17.4,7.912
17.404,7.928
17.408,8.08
17.412,8.072
17.416,7.92
17.42,7.884
17.424,8.056
17.428,8.08
17.432,7.912
17.436,7.868
17.44,8.032
17.444,8.124
17.448,7.964
17.452,7.84
17.456,7.996
17.46,8.108
17.464,7.996
17.468,7.852
17.472,7.936
17.476,8.104
17.48,7.996
17.484,7.868
17.488,7.932
17.492,8.088
17.496,8.048
17.5,7.884
17.504,7.924
17.508,8.1
17.512,8.072
17.516,7.9
17.52,7.864
17.524,8.068
17.528,8.132
17.532,7.952
17.536,7.848
17.54,8.056
17.544,8.148
17.548,7.988
17.552,7.872
17.556,8.004
17.56,8.152
17.564,8.012
17.568,7.876
17.572,8.008
17.576,8.172
17.58,8.056
17.584,7.888
17.588,8.016
17.592,8.212
17.596,8.192
17.6,8.048
17.604,8.064
17.608,8.232
17.612,8.224
17.616,8.044
17.62,8.048
17.624,8.228
17.628,8.324
17.632,8.156
17.636,8.032
17.64,8.168
17.644,8.256
17.648,8.024
17.652,7.936
17.656,8.084
17.66,8.24
17.664,8.052
17.668,7.928
17.672,8.024
17.676,8.168
17.68,8.028
17.684,7.864
17.688,7.932
17.692,8.12
17.696,8.056
17.7,7.908
17.704,7.932
17.708,8.092
17.712,8.06
17.716,7.928
17.72,7.912
17.724,8.016
17.728,8
17.732,7.816
17.736,7.852
17.74,8.26
17.744,8.824
17.748,9.164
17.752,9.712
17.756,10.328
17.76,10.38
17.764,9.648
17.768,8.936
17.772,8.544
17.776,8.22
17.78,7.86
17.784,7.812
17.788,7.968
17.792,8.208
17.796,8.164
17.8,8.052
17.804,8.044
17.808,8.2
17.812,8.184
17.816,8.024
17.82,7.984
17.824,8.176
17.828,8.248
17.832,8.06
17.836,7.972
17.84,8.172
17.844,8.284
17.848,8.116
17.852,8.004
17.856,8.136
17.86,8.28
17.864,8.136
17.868,8.024
17.872,8.12
17.876,8.296
17.88,8.196
17.884,8.072
17.888,8.156
17.892,8.336
17.896,8.26
17.9,8.116
17.904,8.14
17.908,8.328
17.912,8.34
17.916,8.164
17.92,8.144
17.924,8.332
17.928,8.408
17.932,8.256
17.936,8.18
17.94,8.324
17.944,8.456
17.948,8.32
17.952,8.248
17.956,8.396
17.96,8.568
17.964,8.428
17.968,8.328
17.972,8.476
17.976,8.68
17.98,8.588
17.984,8.46
17.988,8.552
17.992,8.76
17.996,8.76
18,8.624
18.004,8.68
18.008,8.884
18.012,8.908
18.016,8.792
18.02,8.784
18.024,8.98
18.028,9.052
18.032,8.908
18.036,8.872
18.04,9.04
18.044,9.168
18.048,8.992
18.052,8.852
18.056,8.992
18.06,9.088
18.064,8.896
18.068,8.708
18.072,8.736
18.076,8.836
18.08,8.644
18.084,8.432
18.088,8.452
18.092,8.552
18.096,8.452
18.1,8.252
18.104,8.244
18.108,8.356
18.112,8.324
18.116,8.136
18.12,8.112
18.124,8.248
18.128,8.288
18.132,8.064
18.136,8.016
18.14,8.184
18.144,8.264
18.148,8.12
18.152,7.996
18.156,8.132
18.16,8.28
18.164,8.148
18.168,8.024
18.172,8.116
18.176,8.28
18.18,8.176
18.184,8.008
18.188,8.104
18.192,8.26
18.196,8.196
18.2,8.048
18.204,8.072
18.208,8.244
18.212,8.248
18.216,8.064
18.22,8.04
18.224,8.22
18.228,8.28
18.232,8.112
18.236,8.02
18.24,8.164
18.244,8.28
18.248,8.104
18.252,8.012
18.256,8.144
18.26,8.264
18.264,8.148
18.268,8.024
18.272,8.108
18.276,8.24
18.28,8.136
18.284,7.988
18.288,8.076
18.292,8.216
18.296,8.176
18.3,8.008
18.304,8.024
18.308,8.192
18.312,8.204
18.316,8.012
18.32,7.98
18.324,8.168
18.328,8.212
18.332,8.056
18.336,7.964
18.34,8.12
18.344,8.248
18.348,8.076
18.352,7.968
18.356,8.108
18.36,8.248
18.364,8.116
18.368,7.976
18.372,8.072
18.376,8.232
18.38,8.124
18.384,7.976
18.388,8.048
18.392,8.188
18.396,8.152
18.4,7.996
18.404,8.012
18.408,8.18
18.412,8.164
18.416,8.004
18.42,7.968
18.424,8.152
18.428,8.22
18.432,8.024
18.436,7.94
18.44,8.132
18.444,8.252
18.448,8.084
18.452,7.976
18.456,8.104
18.46,8.256
18.464,8.096
18.468,7.976
18.472,8.08
18.476,8.248
18.48,8.14
18.484,7.992
18.488,8.068
18.492,8.2
18.496,8.164
18.5,7.984
18.504,8.028
18.508,8.188
18.512,8.216
18.516,8.02
18.52,7.968
18.524,8.152
18.528,8.208
18.532,8.048
18.536,7.944
18.54,8.092
18.544,8.24
18.548,8.072
18.552,7.944
18.556,8.084
18.56,8.212
18.564,8.108
18.568,7.98
18.572,8.084
18.576,8.244
18.58,8.124
18.584,7.992
18.588,8.048
18.592,8.224
18.596,8.164
18.6,8
18.604,8
18.608,8.18
18.612,8.18
18.616,8.024
18.62,7.98
18.624,8.136
18.628,8.212
18.632,8.068
18.636,7.964
18.64,8.1
18.644,8.236
18.648,8.056
18.652,7.952
18.656,8.1
18.66,8.208
18.664,8.1
18.668,7.964
18.672,8.064
18.676,8.204
18.68,8.136
18.684,7.984
18.688,8.08
18.692,8.26
18.696,8.216
18.7,8.108
18.704,8.132
18.708,8.264
18.712,8.244
18.716,8.112
18.72,8.164
18.724,8.324
18.728,8.38
18.732,8.164
18.736,8.068
18.74,8.196
18.744,8.248
18.748,8.12
18.752,7.996
18.756,8.108
18.76,8.248
18.764,8.12
18.768,7.964
18.772,8.04
18.776,8.188
18.78,8.096
18.784,7.964
18.788,8.016
18.792,8.164
18.796,8.128
18.8,7.968
18.804,7.984
18.808,8.136
18.812,8.128
18.816,7.948
18.82,7.884
18.824,7.996
18.828,8.056
18.832,8.016
18.836,8.192
18.84,8.748
18.844,9.4
18.848,9.916
18.852,10.26
18.856,10.216
18.86,9.748
18.864,9.108
18.868,8.48
18.872,8.084
18.876,8.008
18.88,8.028
18.884,7.988
18.888,8.092
18.892,8.268
18.896,8.268
18.9,8.132
18.904,8.096
18.908,8.228
18.912,8.268
18.916,8.104
18.92,8.088
18.924,8.184
18.928,8.28
18.932,8.12
18.936,8.06
18.94,8.164
18.944,8.284
18.948,8.148
18.952,8.048
18.956,8.168
18.96,8.288
18.964,8.168
18.968,8.052
18.972,8.168
18.976,8.3
18.98,8.224
18.984,8.1
18.988,8.156
18.992,8.284
18.996,8.292
19,8.124
19.004,8.152
19.008,8.3
19.012,8.32
19.016,8.22
19.02,8.18
19.024,8.316
19.028,8.38
19.032,8.264
19.036,8.208
19.04,8.364
19.044,8.464
19.048,8.344
19.052,8.256
19.056,8.404
19.06,8.516
19.064,8.464
19.068,8.364
19.072,8.46
19.076,8.636
19.08,8.616
19.084,8.532
19.088,8.58
19.092,8.736
19.096,8.764
19.1,8.652
19.104,8.696
19.108,8.896
19.112,8.932
19.116,8.824
19.12,8.824
19.124,8.984
19.128,9.1
19.132,8.988
19.136,8.9
19.14,9.048
19.144,9.192
19.148,9.048
19.152,8.924
19.156,9.004
19.16,9.12
19.164,8.964
19.168,8.776
19.172,8.78
19.176,8.86
19.18,8.74
19.184,8.544
19.188,8.504
19.192,8.58
19.196,8.508
19.2,8.336
19.204,8.292
19.208,8.368
19.212,8.368
19.216,8.196
19.22,8.12
19.224,8.244
19.228,8.336
19.232,8.176
19.236,8.076
19.24,8.188
19.244,8.304
19.248,8.18
19.252,8.068
19.256,8.164
19.26,8.296
19.264,8.192
19.268,8.048
19.272,8.156
19.276,8.264
19.28,8.212
19.284,8.056
19.288,8.112
19.292,8.26
19.296,8.228
19.3,8.068
19.304,8.08
19.308,8.232
19.312,8.252
19.316,8.116
19.32,8.064
19.324,8.2
19.328,8.26
19.332,8.124
19.336,8.048
19.34,8.164
19.344,8.272
19.348,8.152
19.352,8.004
19.356,8.124
19.36,8.26
19.364,8.144
19.368,8.028
19.372,8.084
19.376,8.26
19.38,8.172
19.384,8.036
19.388,8.068
19.392,8.204
19.396,8.18
19.4,8.044
19.404,8.04
19.408,8.176
19.412,8.212
19.416,8.064
19.42,8
19.424,8.128
19.428,8.208
19.432,8.088
19.436,8.004
19.44,8.128
19.444,8.232
19.448,8.076
19.452,7.992
19.456,8.1
19.46,8.228
19.464,8.132
19.468,8.004
19.472,8.072
19.476,8.188
19.48,8.136
19.484,7.992
19.488,8.048
19.492,8.176
19.496,8.148
19.5,8.024
19.504,8.004
19.508,8.164
19.512,8.176
19.516,8.028
19.52,7.98
19.524,8.132
19.528,8.196
19.532,8.068
19.536,7.952
19.54,8.1
19.544,8.212
19.548,8.08
19.552,7.98
19.556,8.084
19.56,8.188
19.564,8.116
19.568,7.988
19.572,8.052
19.576,8.18
19.58,8.108
19.584,7.956
19.588,8.004
19.592,8.16
19.596,8.156
19.6,8
19.604,8.012
19.608,8.116
19.612,8.192
19.616,8.02
19.62,7.976
19.624,8.116
19.628,8.184
19.632,8.048
19.636,7.952
19.64,8.088
19.644,8.2
19.648,8.064
19.652,7.952
19.656,8.072
19.66,8.192
19.664,8.1
19.668,7.964
19.672,8.04
19.676,8.184
19.68,8.116
19.684,7.956
19.688,8.016
19.692,8.168
19.696,8.148
19.7,8.008
19.704,7.988
19.708,8.156
19.712,8.188
19.716,8.032
19.72,7.988
19.724,8.144
19.728,8.224
19.732,8.048
19.736,7.988
19.74,8.128
19.744,8.252
19.748,8.112
19.752,7.972
19.756,8.116
19.76,8.244
19.764,8.136
19.768,7.96
19.772,8.064
19.776,8.236
19.78,8.204
19.784,8.056
19.788,8.112
19.792,8.296
19.796,8.248
19.8,8.104
19.804,8.136
19.808,8.328
19.812,8.364
19.816,8.176
19.82,8.08
19.824,8.22
19.828,8.276
19.832,8.108
19.836,7.972
19.84,8.136
19.844,8.236
19.848,8.12
19.852,7.976
19.856,8.056
19.86,8.156
19.864,8.056
19.868,7.908
19.872,7.996
19.876,8.144
19.88,8.076
19.884,7.92
19.888,7.988
19.892,8.096
19.896,8.048
19.9,7.912
19.904,7.908
19.908,7.98
19.912,7.924
19.916,7.816
19.92,7.892
19.924,8.372
19.928,8.92
19.932,9.312
19.936,9.884
19.94,10.324
19.944,10.132
19.948,9.372
19.952,8.756
19.956,8.384
19.96,8.072
19.964,7.84
19.968,7.844
19.972,8.028
19.976,8.228
19.98,8.16
19.984,7.996
19.988,8.024
19.992,8.2
19.996,8.188
20,8.028
20.004,8.012
20.008,8.148
20.012,8.2
20.016,8.048
20.02,7.976
20.024,8.14
20.028,8.228
20.032,8.072
20.036,7.976
20.04,8.128
20.044,8.268
20.048,8.116
20.052,8.024
20.056,8.128
20.06,8.288
20.064,8.184
20.068,8.032
20.072,8.14
20.076,8.272
20.08,8.228
20.084,8.084
20.088,8.132
20.092,8.272
20.096,8.26
20.1,8.132
20.104,8.164
20.108,8.312
20.112,8.336
20.116,8.208
20.12,8.172
20.124,8.332
20.128,8.4
20.132,8.26
20.136,8.188
20.14,8.368
20.144,8.508
20.148,8.396
20.152,8.288
20.156,8.44
20.16,8.588
20.164,8.528
20.168,8.404
20.172,8.524
20.176,8.716
20.18,8.668
20.184,8.552
20.188,8.664
20.192,8.856
20.196,8.856
20.2,8.744
20.204,8.776
20.208,8.976
20.212,9.036
20.216,8.9
20.22,8.876
20.224,9.068
20.228,9.18
20.232,9.028
20.236,8.88
20.24,9.028
20.244,9.104
20.248,8.916
20.252,8.76
20.256,8.812
20.26,8.876
20.264,8.688
20.268,8.488
20.272,8.528
20.276,8.592
20.28,8.468
20.284,8.268
20.288,8.248
20.292,8.376
20.296,8.3
20.3,8.136
20.304,8.1
20.308,8.232
20.312,8.236
20.316,8.064
20.32,8.024
20.324,8.168
20.328,8.228
20.332,8.056
20.336,7.96
20.34,8.108
20.344,8.204
20.348,8.084
20.352,7.956
20.356,8.088
20.36,8.236
20.364,8.12
20.368,7.956
20.372,8.056
20.376,8.22
20.38,8.136
20.384,7.972
20.388,8.048
20.392,8.188
20.396,8.156
20.4,7.992
20.404,8.012
20.408,8.148
20.412,8.168
20.416,8
20.42,7.936
20.424,8.096
20.428,8.156
20.432,8.024
20.436,7.92
20.44,8.032
20.444,8.164
20.448,8.024
20.452,7.908
20.456,7.984
20.46,8.136
20.464,8.028
20.468,7.896
20.472,7.972
20.476,8.1
20.48,8.044
20.484,7.912
20.488,7.952
20.492,8.096
20.496,8.052
20.5,7.892
20.504,7.912
20.508,8.056
20.512,8.088
20.516,7.912
20.52,7.868
20.524,8.012
20.528,8.08
20.532,7.944
20.536,7.84
20.54,7.984
20.544,8.076
20.548,7.96
20.552,7.816
20.556,7.94
20.56,8.06
20.564,7.956
20.568,7.82
20.572,7.904
20.576,8.064
20.58,7.972
20.584,7.832
20.588,7.884
20.592,8.032
20.596,8.016
20.6,7.836
20.604,7.86
20.608,8.008
20.612,8.024
20.616,7.884
20.62,7.816
20.624,7.976
20.628,8.048
20.632,7.92
20.636,7.8
20.64,7.94
20.644,8.048
20.648,7.908
20.652,7.78
20.656,7.92
20.66,8.056
20.664,7.944
20.668,7.804
20.672,7.86
20.676,7.988
20.68,7.948
20.684,7.792
20.688,7.808
20.692,7.972
20.696,7.988
20.7,7.84
20.704,7.796
20.708,7.964
20.712,7.98
20.716,7.856
20.72,7.804
20.724,7.932
20.728,8.008
20.732,7.84
20.736,7.78
20.74,7.916
20.744,8.06
20.748,7.884
20.752,7.748
20.756,7.852
20.76,8.008
20.764,7.912
20.768,7.76
20.772,7.864
20.776,8.036
20.78,8
20.784,7.872
20.788,7.936
20.792,8.06
20.796,8.024
20.8,7.876
20.804,7.936
20.808,8.128
20.812,8.132
20.816,7.928
20.82,7.872
20.824,8.008
20.828,8.072
20.832,7.876
20.836,7.776
20.84,7.904
20.844,8.028
20.848,7.876
20.852,7.732
20.856,7.848
20.86,7.944
20.864,7.824
20.868,7.708
20.872,7.792
20.876,7.96
20.88,7.864
20.884,7.728
20.888,7.756
20.892,7.932
20.896,7.9
20.9,7.74
20.904,7.64
20.908,7.724
20.912,7.784
20.916,7.736
20.92,7.98
20.924,8.572
20.928,9.236
20.932,9.76
20.936,9.976
20.94,9.844
20.944,9.368
20.948,8.768
20.952,8.188
20.956,7.772
20.96,7.744
20.964,7.652
20.968,7.684
20.972,7.784
20.976,8.016
20.98,7.932
20.984,7.836
20.988,7.816
20.992,7.988
20.996,7.952
21,7.852
21.004,7.792
21.008,7.948
21.012,7.988
21.016,7.88
21.02,7.768
21.024,7.92
21.028,7.996
21.032,7.884
21.036,7.764
21.04,7.896
21.044,8.044
21.048,7.896
21.052,7.796
21.056,7.888
21.06,8.056
21.064,7.936
21.068,7.84
21.072,7.904
21.076,8.048
21.08,7.984
21.084,7.904
21.088,7.884
21.092,8.044
21.096,8.036
21.1,7.964
21.104,7.916
21.108,8.068
21.112,8.092
21.116,8.016
21.12,7.936
21.124,8.096
21.128,8.212
21.132,8.096
21.136,7.988
21.14,8.156
21.144,8.308
21.148,8.184
21.152,8.096
21.156,8.22
21.16,8.392
21.164,8.312
21.168,8.26
21.172,8.32
21.176,8.508
21.18,8.48
21.184,8.412
21.188,8.46
21.192,8.64
21.196,8.668
21.2,8.588
21.204,8.556
21.208,8.756
21.212,8.82
21.216,8.724
21.22,8.652
21.224,8.836
21.228,8.94
21.232,8.784
21.236,8.648
21.24,8.768
21.244,8.84
21.248,8.628
21.252,8.504
21.256,8.508
21.26,8.592
21.264,8.396
21.268,8.232
21.272,8.204
21.276,8.332
21.28,8.192
21.284,8.04
21.288,7.992
21.292,8.132
21.296,8.076
21.3,7.936
21.304,7.856
21.308,8.004
21.312,8.044
21.316,7.892
21.32,7.792
21.324,7.92
21.328,8.032
21.332,7.88
21.336,7.78
21.34,7.908
21.344,8.036
21.348,7.88
21.352,7.788
21.356,7.896
21.36,8.028
21.364,7.916
21.368,7.796
21.372,7.872
21.376,8
21.38,7.944
21.384,7.872
21.388,7.828
21.392,7.98
21.396,7.988
21.4,7.86
21.404,7.82
21.408,7.956
21.412,8.004
21.416,7.888
21.42,7.784
21.424,7.916
21.428,8.016
21.432,7.84
21.436,7.76
21.44,7.908
21.444,8.02
21.448,7.836
21.452,7.744
21.456,7.836
21.46,8
21.464,7.908
21.468,7.8
21.472,7.824
21.476,8
21.48,7.904
21.484,7.804
21.488,7.804
21.492,7.936
21.496,7.9
21.5,7.808
21.504,7.744
21.508,7.916
21.512,7.948
21.516,7.82
21.52,7.712
21.524,7.872
21.528,7.976
21.532,7.832
21.536,7.72
21.54,7.812
21.544,7.98
21.548,7.832
21.552,7.716
21.556,7.812
21.56,7.924
21.564,7.856
21.568,7.768
21.572,7.792
21.576,7.932
21.58,7.864
21.584,7.788
21.588,7.78
21.592,7.92
21.596,7.9
21.6,7.796
21.604,7.752
21.608,7.896
21.612,7.94
21.616,7.812
21.62,7.72
21.624,7.86
21.628,7.96
21.632,7.82
21.636,7.724
21.64,7.832
21.644,7.972
21.648,7.82
21.652,7.744
21.656,7.828
21.66,7.972
21.664,7.844
21.668,7.772
21.672,7.828
21.676,7.952
21.68,7.888
21.684,7.78
21.688,7.784
21.692,7.948
21.696,7.976
21.7,7.888
21.704,7.872
21.708,7.996
21.712,8.04
21.716,7.912
21.72,7.852
21.724,8.064
21.728,8.188
21.732,8.008
21.736,7.836
21.74,7.968
21.744,8.072
21.748,7.876
21.752,7.8
21.756,7.86
21.76,8.004
21.764,7.904
21.768,7.788
21.772,7.808
21.776,7.936
21.78,7.852
21.784,7.752
21.788,7.764
21.792,7.92
21.796,7.896
21.8,7.796
21.804,7.748
21.808,7.88
21.812,7.948
21.816,7.804
21.82,7.668
21.824,7.744
21.828,7.808
21.832,7.744
21.836,7.836
21.84,8.332
21.844,8.992
21.848,9.432
21.852,9.956
21.856,10.14
21.86,9.796
21.864,9.092
21.868,8.544
21.872,8.052
21.876,7.836
21.88,7.728
21.884,7.752
21.888,7.804
21.892,8.032
21.896,8.052
21.9,7.944
21.904,7.888
21.908,8.028
21.912,8.084
21.916,7.908
21.92,7.812
21.924,7.992
21.928,8.08
21.932,7.948
21.936,7.868
21.94,7.972
21.944,8.116
21.948,7.968
21.952,7.9
21.956,7.984
21.96,8.132
21.964,8.016
21.968,7.904
21.972,7.964
21.976,8.136
21.98,8.076
21.984,7.976
21.988,7.964
21.992,8.124
21.996,8.148
22,8.016
22.004,7.96
22.008,8.136
22.012,8.196
22.016,8.072
22.02,8.036
22.024,8.164
22.028,8.272
22.032,8.128
22.036,8.056
22.04,8.2
22.044,8.336
22.048,8.216
22.052,8.144
22.056,8.232
22.06,8.396
22.064,8.332
22.068,8.264
22.072,8.324
22.076,8.488
22.08,8.468
22.084,8.396
22.088,8.428
22.092,8.612
22.096,8.648
22.1,8.572
22.104,8.564
22.108,8.736
22.112,8.82
22.116,8.712
22.12,8.688
22.124,8.836
22.128,8.972
22.132,8.852
22.136,8.78
22.14,8.92
22.144,9.06
22.148,8.904
22.152,8.82
22.156,8.88
22.16,8.964
22.164,8.804
22.168,8.676
22.172,8.648
22.176,8.704
22.18,8.584
22.184,8.428
22.188,8.356
22.192,8.456
22.196,8.372
22.2,8.196
22.204,8.132
22.208,8.228
22.212,8.268
22.216,8.096
22.22,8
22.224,8.12
22.228,8.208
22.232,8.04
22.236,7.96
22.24,8.064
22.244,8.196
22.248,8.072
22.252,7.964
22.256,8.048
22.26,8.184
22.264,8.092
22.268,8.02
22.272,8.044
22.276,8.184
22.28,8.132
22.284,8.012
22.288,7.992
22.292,8.172
22.296,8.164
22.3,8.052
22.304,7.988
22.308,8.12
22.312,8.196
22.316,8.072
22.32,8.012
22.324,8.12
22.328,8.208
22.332,8.056
22.336,8.004
22.34,8.1
22.344,8.232
22.348,8.088
22.352,8.016
22.356,8.072
22.36,8.236
22.364,8.112
22.368,8.008
22.372,8.048
22.376,8.208
22.38,8.132
22.384,8.012
22.388,7.992
22.392,8.16
22.396,8.16
22.4,8.048
22.404,8
22.408,8.12
22.412,8.192
22.416,8.012
22.42,7.948
22.424,8.104
22.428,8.18
22.432,8.024
22.436,7.948
22.44,8.064
22.444,8.2
22.448,8.044
22.452,7.968
22.456,8.016
22.46,8.176
22.464,8.088
22.468,7.98
22.472,7.996
22.476,8.156
22.48,8.104
22.484,7.972
22.488,7.952
22.492,8.112
22.496,8.136
22.5,7.976
22.504,7.936
22.508,8.1
22.512,8.156
22.516,7.976
22.52,7.94
22.524,8.048
22.528,8.164
22.532,8.008
22.536,7.924
22.54,8
22.544,8.168
22.548,8.04
22.552,7.956
22.556,8
22.56,8.168
22.564,8.028
22.568,7.956
22.572,7.98
22.576,8.124
22.58,8.088
22.584,7.976
22.588,7.944
22.592,8.132
22.596,8.092
22.6,7.984
22.604,7.932
22.608,8.132
22.612,8.252
22.616,8.096
22.62,8.072
22.624,8.136
22.628,8.272
22.632,8.12
22.636,8.084
22.64,8.232
22.644,8.348
22.648,8.212
22.652,8.076
22.656,8.132
22.66,8.268
22.664,8.128
22.668,7.996
22.672,8.02
22.676,8.2
22.68,8.156
22.684,7.98
22.688,7.972
22.692,8.116
22.696,8.1
22.7,7.944
22.704,7.916
22.708,8.044
22.712,8.112
22.716,7.952
22.72,7.904
22.724,8.052
22.728,8.16
22.732,7.976
22.736,7.868
22.74,7.916
22.744,8.024
22.748,7.94
22.752,8.02
22.756,8.412
22.76,9.076
22.764,9.536
22.768,10.1
22.772,10.34
22.776,10.064
22.78,9.412
22.784,8.788
22.788,8.268
22.792,8.012
22.796,7.968
22.8,7.956
22.804,7.976
22.808,8.18
22.812,8.268
22.816,8.092
22.82,8.024
22.824,8.144
22.828,8.256
22.832,8.096
22.836,8
22.84,8.112
22.844,8.276
22.848,8.132
22.852,8.036
22.856,8.108
22.86,8.264
22.864,8.16
22.868,8.056
22.872,8.08
22.876,8.244
22.88,8.212
22.884,8.084
22.888,8.084
22.892,8.236
22.896,8.252
22.9,8.116
22.904,8.092
22.908,8.252
22.912,8.34
22.916,8.164
22.92,8.108
22.924,8.252
22.928,8.384
22.932,8.252
22.936,8.16
22.94,8.244
22.944,8.428
22.948,8.28
22.952,8.232
22.956,8.276
22.96,8.448
22.964,8.376
22.968,8.296
22.972,8.36
22.976,8.544
22.98,8.492
22.984,8.388
22.988,8.392
22.992,8.604
22.996,8.672
23,8.532
23.004,8.508
23.008,8.712
23.012,8.812
23.016,8.692
23.02,8.676
23.024,8.82
23.028,8.96
23.032,8.812
23.036,8.796
23.04,8.928
23.044,9.12
23.048,8.972
23.052,8.92
23.056,8.984
23.06,9.16
23.064,9.08
23.068,8.936
23.072,8.944
23.076,9.084
23.08,8.968
23.084,8.796
23.088,8.736
23.092,8.808
23.096,8.756
23.1,8.508
23.104,8.416
23.108,8.492
23.112,8.528
23.116,8.272
23.12,8.168
23.124,8.276
23.128,8.368
23.132,8.184
23.136,8.04
23.14,8.14
23.144,8.3
23.148,8.144
23.152,8.024
23.156,8.068
23.16,8.24
23.164,8.144
23.168,8.008
23.172,8.036
23.176,8.188
23.18,8.16
23.184,8.032
23.188,8.028
23.192,8.184
23.196,8.196
23.2,8.032
23.204,8.004
23.208,8.172
23.212,8.228
23.216,8.056
23.22,8.004
23.224,8.144
23.228,8.276
23.232,8.096
23.236,8.008
23.24,8.1
23.244,8.256
23.248,8.104
23.252,8.024
23.256,8.092
23.26,8.256
23.264,8.136
23.268,8.032
23.272,8.072
23.276,8.232
23.28,8.176
23.284,8.012
23.288,8.012
23.292,8.184
23.296,8.192
23.3,8.028
23.304,7.98
23.308,8.132
23.312,8.228
23.316,8.04
23.32,7.952
23.324,8.092
23.328,8.224
23.332,8.048
23.336,7.98
23.34,8.06
23.344,8.2
23.348,8.088
23.352,7.972
23.356,8.004
23.36,8.2
23.364,8.124
23.368,7.972
23.372,7.976
23.376,8.152
23.38,8.128
23.384,7.976
23.388,7.976
23.392,8.124
23.396,8.168
23.4,7.984
23.404,7.972
23.408,8.092
23.412,8.168
23.416,7.976
23.42,7.92
23.424,8.044
23.428,8.18
23.432,8.024
23.436,7.92
23.44,8.02
23.444,8.188
23.448,8.052
23.452,7.952
23.456,7.968
23.46,8.156
23.464,8.092
23.468,7.944
23.472,7.968
23.476,8.16
23.48,8.12
23.484,7.972
23.488,7.984
23.492,8.128
23.496,8.16
23.5,7.98
23.504,7.936
23.508,8.12
23.512,8.208
23.516,7.996
23.52,7.94
23.524,8.056
23.528,8.208
23.532,8.032
23.536,7.944
23.54,8.068
23.544,8.248
23.548,8.132
23.552,8.064
23.556,8.136
23.56,8.272
23.564,8.176
23.568,8.064
23.572,8.14
23.576,8.324
23.58,8.304
23.584,8.08
23.588,8.096
23.592,8.236
23.596,8.24
23.6,8.028
23.604,8.012
23.608,8.144
23.612,8.216
23.616,7.992
23.62,7.928
23.624,8.048
23.628,8.16
23.632,7.992
23.636,7.912
23.64,7.992
23.644,8.148
23.648,8.032
23.652,7.932
23.656,7.984
23.66,8.136
23.664,8.056
23.668,7.872
23.672,7.848
23.676,7.968
23.68,7.968
23.684,7.948
23.688,8.284
23.692,8.908
23.696,9.52
23.7,10.004
23.704,10.244
23.708,10.032
23.712,9.492
23.716,8.824
23.72,8.304
23.724,7.956
23.728,7.952
23.732,7.9
23.736,7.892
23.74,8.084
23.744,8.272
23.748,8.132
23.752,8.04
23.756,8.096
23.76,8.252
23.764,8.128
23.768,8.004
23.772,8.072
23.776,8.216
23.78,8.164
23.784,8.064
23.788,8.056
23.792,8.212
23.796,8.228
23.8,8.048
23.804,8.06
23.808,8.176
23.812,8.248
23.816,8.132
23.82,8.1
23.824,8.176
23.828,8.288
23.832,8.148
23.836,8.068
23.84,8.172
23.844,8.304
23.848,8.216
23.852,8.116
23.856,8.18
23.86,8.34
23.864,8.232
23.868,8.136
23.872,8.192
23.876,8.344
23.88,8.296
23.884,8.144
23.888,8.192
23.892,8.336
23.896,8.38
23.9,8.236
23.904,8.248
23.908,8.412
23.912,8.52
23.916,8.404
23.92,8.384
23.924,8.532
23.928,8.616
23.932,8.516
23.936,8.496
23.94,8.6
23.944,8.8
23.948,8.68
23.952,8.596
23.956,8.696
23.96,8.916
23.964,8.832
23.968,8.748
23.972,8.808
23.976,9.032
23.98,8.996
23.984,8.824
23.988,8.872
23.992,9.048
23.996,9.088
24,8.896
24.004,8.868
24.008,8.96
24.012,9.004
24.016,8.772
24.02,8.676
24.024,8.684
24.028,8.756
24.032,8.544
24.036,8.356
24.04,8.416
24.044,8.472
24.048,8.308
24.052,8.136
24.056,8.192
24.06,8.312
24.064,8.176
24.068,8.008
24.072,8.048
24.076,8.18
24.08,8.16
24.084,7.968
24.088,7.992
24.092,8.116
24.096,8.156
24.1,7.98
24.104,7.984
24.108,8.088
24.112,8.156
24.116,8
24.12,7.968
24.124,8.06
24.128,8.188
24.132,7.96
24.136,7.936
24.14,8.088
24.144,8.216
24.148,8.124
24.152,7.968
24.156,8.02
24.16,8.164
24.164,8.092
24.168,7.948
24.172,8.008
24.176,8.132
24.18,8.076
24.184,7.92
24.188,8.008
24.192,8.156
24.196,8.144
24.2,7.98
24.204,7.98
24.208,8.132
24.212,8.2
24.216,8.028
24.22,7.96
24.224,8.08
24.228,8.208
24.232,8.06
24.236,7.968
24.24,8.048
24.244,8.196
24.248,8.052
24.252,7.964
24.256,8.048
24.26,8.148
24.264,8.088
24.268,7.932
24.272,8.016
24.276,8.144
24.28,8.104
24.284,7.956
24.288,7.988
24.292,8.128
24.296,8.16
24.3,7.976
24.304,7.976
24.308,8.096
24.312,8.16
24.316,8.02
24.32,7.972
24.324,8.056
24.328,8.172
24.332,8.024
24.336,7.976
24.34,8.068
24.344,8.192
24.348,8.052
24.352,7.968
24.356,8.048
24.36,8.188
24.364,8.084
24.368,7.952
24.372,8.028
24.376,8.176
24.38,8.152
24.384,7.984
24.388,7.992
24.392,8.136
24.396,8.132
24.4,7.996
24.404,7.988
24.408,8.112
24.412,8.176
24.416,8.068
24.42,8.056
24.424,8.168
24.428,8.34
24.432,8.176
24.436,8.064
24.44,8.168
24.444,8.332
24.448,8.268
24.452,8.172
24.456,8.228
24.46,8.312
24.464,8.236
24.468,8.088
24.472,8.1
24.476,8.2
24.48,8.16
24.484,8.012
24.488,8.02
24.492,8.136
24.496,8.136
24.5,7.972
24.504,7.948
24.508,8.076
24.512,8.14
24.516,7.968
24.52,7.916
24.524,8.056
24.528,8.128
24.532,8
24.536,7.908
24.54,8.032
24.544,8.152
24.548,7.976
24.552,7.792
24.556,7.94
24.56,8.172
24.564,8.292
24.568,8.584
24.572,9.204
24.576,9.968
24.58,10.348
24.584,10.02
24.588,9.456
24.592,9.06
24.596,8.6
24.6,7.936
24.604,7.704
24.608,7.928
24.612,8.096
24.616,8.016
24.62,7.976
24.624,8.152
24.628,8.248
24.632,8.088
24.636,7.976
24.64,8.12
24.644,8.22
24.648,8.112
24.652,7.968
24.656,8.1
24.66,8.224
24.664,8.152
24.668,8.004
24.672,8.052
24.676,8.192
24.68,8.168
24.684,8.02
24.688,8.024
24.692,8.204
24.696,8.2
24.7,8.072
24.704,8.012
24.708,8.18
24.712,8.252
24.716,8.12
24.72,8.032
24.724,8.16
24.728,8.288
24.732,8.172
24.736,8.044
24.74,8.192
24.744,8.34
24.748,8.212
24.752,8.12
24.756,8.24
24.76,8.384
24.764,8.292
24.768,8.192
24.772,8.236
24.776,8.384
24.78,8.376
24.784,8.284
24.788,8.304
24.792,8.468
24.796,8.532
24.8,8.412
24.804,8.412
24.808,8.608
24.812,8.708
24.816,8.592
24.82,8.528
24.824,8.724
24.828,8.88
24.832,8.756
24.836,8.676
24.84,8.828
24.844,9.016
24.848,8.924
24.852,8.836
24.856,8.944
24.86,9.124
24.864,9.052
24.868,8.932
24.872,8.98
24.876,9.096
24.88,9.068
24.884,8.876
24.888,8.824
24.892,8.916
24.896,8.856
24.9,8.628
24.904,8.496
24.908,8.58
24.912,8.588
24.916,8.388
24.92,8.212
24.924,8.324
24.928,8.38
24.932,8.216
24.936,8.076
24.94,8.148
24.944,8.264
24.948,8.148
24.952,7.988
24.956,8.1
24.96,8.196
24.964,8.128
24.968,7.988
24.972,8.024
24.976,8.192
24.98,8.152
24.984,8
24.988,7.968
24.992,8.112
24.996,8.14
25,8.028
25.004,7.964
25.008,8.096
25.012,8.188
25.016,8.04
25.02,7.936
25.024,8.076
25.028,8.192
25.032,8.032
25.036,7.94
25.04,8.048
25.044,8.176
25.048,8.056
25.052,7.936
25.056,8.02
25.06,8.172
25.064,8.084
25.068,7.944
25.072,7.996
25.076,8.132
25.08,8.1
25.084,7.968
25.088,7.928
25.092,8.104
25.096,8.076
25.1,7.948
25.104,7.896
25.108,8.04
25.112,8.116
25.116,7.956
25.12,7.876
25.124,8.02
25.128,8.144
25.132,7.976
25.136,7.86
25.14,7.98
25.144,8.1
25.148,8
25.152,7.872
25.156,7.976
25.16,8.124
25.164,8.04
25.168,7.872
25.172,7.916
25.176,8.04
25.18,8.032
25.184,7.888
25.188,7.924
25.192,8.104
25.196,8.128
25.2,7.976
25.204,7.948
25.208,8.104
25.212,8.168
25.216,8.008
25.22,7.932
25.224,8.14
25.228,8.276
25.232,8.12
25.236,7.964
25.24,8.048
25.244,8.168
25.248,8.012
25.252,7.888
25.256,7.96
25.26,8.096
25.264,8.016
25.268,7.84
25.272,7.868
25.276,8.032
25.28,7.944
25.284,7.788
25.288,7.772
25.292,7.964
25.296,7.968
25.3,7.82
25.304,7.756
25.308,7.888
25.312,7.976
25.316,7.864
25.32,7.732
25.324,7.848
25.328,7.904
25.332,7.724
25.336,7.664
25.34,7.94
25.344,8.408
25.348,8.756
25.352,9.184
25.356,9.856
25.36,10.232
25.364,9.796
25.368,9.04
25.372,8.624
25.376,8.284
25.38,7.844
25.384,7.552
25.388,7.576
25.392,7.84
25.396,7.964
25.4,7.872
25.404,7.844
25.408,7.992
25.412,8.076
25.416,7.924
25.42,7.824
25.424,7.972
25.428,8.084
25.432,7.96
25.436,7.804
25.44,7.944
25.444,8.108
25.448,8.008
25.452,7.872
25.456,7.932
25.46,8.1
25.464,8.04
25.468,7.916
25.472,7.948
25.476,8.084
25.48,8.068
25.484,7.94
25.488,7.944
25.492,8.116
25.496,8.12
25.5,7.964
25.504,7.896
25.508,8.088
25.512,8.192
25.516,8.028
25.52,7.928
25.524,8.08
25.528,8.236
25.532,8.116
25.536,7.96
25.54,8.12
25.544,8.276
25.548,8.172
25.552,8.024
25.556,8.152
25.56,8.324
25.564,8.276
25.568,8.144
25.572,8.212
25.576,8.42
25.58,8.416
25.584,8.296
25.588,8.304
25.592,8.512
25.596,8.592
25.6,8.444
25.604,8.408
25.608,8.608
25.612,8.74
25.616,8.628
25.62,8.556
25.624,8.732
25.628,8.876
25.632,8.78
25.636,8.676
25.64,8.828
25.644,8.956
25.648,8.848
25.652,8.716
25.656,8.764
25.66,8.872
25.664,8.732
25.668,8.548
25.672,8.508
25.676,8.596
25.68,8.516
25.684,8.292
25.688,8.22
25.692,8.296
25.696,8.28
25.7,8.08
25.704,7.984
25.708,8.108
25.712,8.14
25.716,7.976
25.72,7.856
25.724,7.98
25.728,8.096
25.732,7.932
25.736,7.78
25.74,7.916
25.744,8.056
25.748,7.912
25.752,7.78
25.756,7.856
25.76,8.016
25.764,7.976
25.768,7.812
25.772,7.816
25.776,7.972
25.78,7.936
25.784,7.832
25.788,7.82
25.792,7.96
25.796,7.992
25.8,7.816
25.804,7.784
25.808,7.92
25.812,8.016
25.816,7.852
25.82,7.74
25.824,7.856
25.828,7.996
25.832,7.86
25.836,7.712
25.84,7.824
25.844,7.972
25.848,7.852
25.852,7.728
25.856,7.788
25.86,7.936
25.864,7.868
25.868,7.712
25.872,7.748
25.876,7.888
25.88,7.892
25.884,7.712
25.888,7.728
25.892,7.824
25.896,7.872
25.9,7.744
25.904,7.696
25.908,7.816
25.912,7.928
25.916,7.756
25.92,7.652
25.924,7.76
25.928,7.916
25.932,7.78
25.936,7.648
25.94,7.764
25.944,7.932
25.948,7.872
25.952,7.732
25.956,7.816
25.96,7.976
25.964,7.896
25.968,7.716
25.972,7.788
25.976,7.988
25.98,7.992
25.984,7.808
25.988,7.756
25.992,7.888
25.996,7.956
26,7.768
26.004,7.668
26.008,7.788
26.012,7.908
26.016,7.74
26.02,7.62
26.024,7.74
26.028,7.84
26.032,7.692
26.036,7.536
26.04,7.64
26.044,7.844
26.048,7.72
26.052,7.572
26.056,7.648
26.06,7.816
26.064,7.788
26.068,7.612
26.072,7.612
26.076,7.764
26.08,7.688
26.084,7.472
26.088,7.556
26.092,7.776
26.096,8.176
26.1,8.444
26.104,8.976
26.108,9.732
26.112,10.084
26.116,9.624
26.12,8.9
26.124,8.556
26.128,8.268
26.132,7.664
26.136,7.336
26.14,7.528
26.144,7.824
26.148,7.792
26.152,7.676
26.156,7.78
26.16,7.956
26.164,7.896
26.168,7.724
26.172,7.732
26.176,7.896
26.18,7.932
26.184,7.74
26.188,7.736
26.192,7.896
26.196,7.976
26.2,7.804
26.204,7.72
26.208,7.856
26.212,8.028
26.216,7.848
26.22,7.712
26.224,7.852
26.228,8.02
26.232,7.896
26.236,7.748
26.24,7.84
26.244,8.04
26.248,7.936
26.252,7.78
26.256,7.864
26.26,8.028
26.264,8
26.268,7.844
26.272,7.856
26.276,8.044
26.28,8.064
26.284,7.896
26.288,7.912
26.292,8.068
26.296,8.14
26.3,8.004
26.304,7.924
26.308,8.092
26.312,8.248
26.316,8.112
26.32,8.008
26.324,8.144
26.328,8.34
26.332,8.224
26.336,8.132
26.34,8.26
26.344,8.444
26.348,8.4
26.352,8.26
26.356,8.384
26.36,8.596
26.364,8.568
26.368,8.436
26.372,8.5
26.376,8.664
26.38,8.736
26.384,8.56
26.388,8.592
26.392,8.752
26.396,8.82
26.4,8.636
26.404,8.56
26.408,8.68
26.412,8.776
26.416,8.556
26.42,8.36
26.424,8.464
26.428,8.548
26.432,8.32
26.436,8.104
26.44,8.172
26.444,8.304
26.448,8.128
26.452,7.936
26.456,7.964
26.46,8.08
26.464,8.024
26.468,7.848
26.472,7.856
26.476,7.98
26.48,7.976
26.484,7.796
26.488,7.792
26.492,7.92
26.496,7.984
26.5,7.824
26.504,7.708
26.508,7.888
26.512,8.028
26.516,7.848
26.52,7.728
26.524,7.864
26.528,8.016
26.532,7.896
26.536,7.736
26.54,7.848
26.544,8.012
26.548,7.912
26.552,7.768
26.556,7.864
26.56,7.976
26.564,7.948
26.568,7.788
26.572,7.812
26.576,7.96
26.58,7.96
26.584,7.808
26.588,7.772
26.592,7.924
26.596,8.008
26.6,7.82
26.604,7.756
26.608,7.904
26.612,8
26.616,7.852
26.62,7.716
26.624,7.844
26.628,7.992
26.632,7.84
26.636,7.728
26.64,7.84
26.644,7.968
26.648,7.876
26.652,7.712
26.656,7.8
26.66,7.948
26.664,7.892
26.668,7.704
26.672,7.76
26.676,7.928
26.68,7.944
26.684,7.808
26.688,7.804
26.692,7.972
26.696,8.024
26.7,7.864
26.704,7.784
26.708,7.936
26.712,8.088
26.716,7.924
26.72,7.8
26.724,7.908
26.728,8.024
26.732,7.896
26.736,7.7
26.74,7.812
26.744,7.96
26.748,7.852
26.752,7.68
26.756,7.756
26.76,7.892
26.764,7.82
26.768,7.596
26.772,7.644
26.776,7.772
26.78,7.788
26.784,7.604
26.788,7.604
26.792,7.732
26.796,7.808
26.8,7.62
26.804,7.556
26.808,7.716
26.812,7.812
26.816,7.56
26.82,7.404
26.824,7.608
26.828,7.892
26.832,8.06
26.836,8.388
26.84,9.072
26.844,9.848
26.848,10.012
26.852,9.516
26.856,8.996
26.86,8.68
26.864,8.148
26.868,7.512
26.872,7.404
26.876,7.612
26.88,7.732
26.884,7.628
26.888,7.636
26.892,7.796
26.896,7.9
26.9,7.716
26.904,7.636
26.908,7.78
26.912,7.892
26.916,7.732
26.92,7.604
26.924,7.724
26.928,7.852
26.932,7.732
26.936,7.6
26.94,7.74
26.944,7.876
26.948,7.764
26.952,7.644
26.956,7.728
26.96,7.868
26.964,7.82
26.968,7.672
26.972,7.724
26.976,7.872
26.98,7.876
26.984,7.732
26.988,7.712
26.992,7.864
26.996,7.936
27,7.792
27.004,7.724
27.008,7.884
27.012,7.972
27.016,7.844
27.02,7.736
27.024,7.904
27.028,8.032
27.032,7.904
27.036,7.764
27.04,7.936
27.044,8.1
27.048,8.004
27.052,7.872
27.056,7.988
27.06,8.18
27.064,8.144
27.068,8.004
27.072,8.076
27.076,8.276
27.08,8.3
27.084,8.188
27.088,8.212
27.092,8.368
27.096,8.472
27.1,8.34
27.104,8.316
27.108,8.484
27.112,8.628
27.116,8.468
27.12,8.412
27.124,8.564
27.128,8.736
27.132,8.6
27.136,8.408
27.14,8.52
27.144,8.64
27.148,8.508
27.152,8.304
27.156,8.34
27.16,8.38
27.164,8.292
27.168,8.064
27.172,8.06
27.176,8.112
27.18,8.052
27.184,7.848
27.188,7.804
27.192,7.932
27.196,7.94
27.2,7.74
27.204,7.676
27.208,7.792
27.212,7.872
27.216,7.724
27.22,7.584
27.224,7.732
27.228,7.852
27.232,7.752
27.236,7.588
27.24,7.716
27.244,7.856
27.248,7.772
27.252,7.624
27.256,7.748
27.26,7.868
27.264,7.82
27.268,7.656
27.272,7.712
27.276,7.836
27.28,7.844
27.284,7.668
27.288,7.668
27.292,7.804
27.296,7.88
27.3,7.708
27.304,7.644
27.308,7.784
27.312,7.904
27.316,7.744
27.32,7.6
27.324,7.764
27.328,7.88
27.332,7.728
27.336,7.604
27.34,7.76
27.344,7.888
27.348,7.768
27.352,7.616
27.356,7.728
27.36,7.856
27.364,7.788
27.368,7.644
27.372,7.692
27.376,7.828
27.38,7.828
27.384,7.644
27.388,7.652
27.392,7.768
27.396,7.864
27.4,7.724
27.404,7.684
27.408,7.84
27.412,7.956
27.416,7.804
27.42,7.652
27.424,7.82
27.428,7.964
27.432,7.844
27.436,7.72
27.44,7.852
27.444,7.956
27.448,7.832
27.452,7.664
27.456,7.724
27.46,7.84
27.464,7.784
27.468,7.652
27.472,7.672
27.476,7.796
27.48,7.796
27.484,7.632
27.488,7.584
27.492,7.716
27.496,7.76
27.5,7.568
27.504,7.532
27.508,7.692
27.512,7.792
27.516,7.636
27.52,7.512
27.524,7.688
27.528,7.796
27.532,7.624
27.536,7.42
27.54,7.52
27.544,7.736
27.548,7.852
27.552,8.084
27.556,8.696
27.56,9.388
27.564,9.888
27.568,9.832
27.572,9.368
27.576,8.932
27.58,8.448
27.584,7.812
27.588,7.408
27.592,7.52
27.596,7.696
27.6,7.636
27.604,7.608
27.608,7.776
27.612,7.904
27.616,7.736
27.62,7.636
27.624,7.752
27.628,7.876
27.632,7.752
27.636,7.62
27.64,7.764
27.644,7.892
27.648,7.78
27.652,7.644
27.656,7.78
27.66,7.904
27.664,7.86
27.668,7.688
27.672,7.756
27.676,7.9
27.68,7.916
27.684,7.756
27.688,7.74
27.692,7.908
27.696,7.972
27.7,7.812
27.704,7.744
27.708,7.908
27.712,8.008
27.716,7.852
27.72,7.792
27.724,7.956
27.728,8.068
27.732,7.936
27.736,7.828
27.74,7.968
27.744,8.128
27.748,8.028
27.752,7.892
27.756,8.016
27.76,8.144
27.764,8.156
27.768,8.02
27.772,8.052
27.776,8.236
27.78,8.248
27.784,8.144
27.788,8.16
27.792,8.34
27.796,8.416
27.8,8.296
27.804,8.256
27.808,8.452
27.812,8.564
27.816,8.46
27.82,8.36
27.824,8.556
27.828,8.708
27.832,8.604
27.836,8.488
27.84,8.644
27.844,8.76
27.848,8.688
27.852,8.556
27.856,8.624
27.86,8.7
27.864,8.624
27.868,8.464
27.872,8.448
27.876,8.52
27.88,8.452
27.884,8.208
27.888,8.14
27.892,8.24
27.896,8.244
27.9,8.032
27.904,7.928
27.908,8.036
27.912,8.092
27.916,7.928
27.92,7.776
27.924,7.9
27.928,8.024
27.932,7.88
27.936,7.756
27.94,7.868
27.944,7.98
27.948,7.876
27.952,7.76
27.956,7.856
27.96,7.98
27.964,7.908
27.968,7.78
27.972,7.82
27.976,7.968
27.98,7.964
27.984,7.812
27.988,7.78
27.992,7.928
27.996,7.988
28,7.844
28.004,7.76
28.008,7.944
28.012,8.008
28.016,7.872
28.02,7.756
28.024,7.932
28.028,8.004
28.032,7.868
28.036,7.744
28.04,7.884
28.044,8.032
28.048,7.96
28.052,7.788
28.056,7.848
28.06,7.956
28.064,7.904
28.068,7.768
28.072,7.792
28.076,7.96
28.08,7.952
28.084,7.824
28.088,7.772
28.092,7.948
28.096,7.968
28.1,7.82
28.104,7.768
28.108,7.916
28.112,7.988
28.116,7.824
28.12,7.728
28.124,7.88
28.128,7.96
28.132,7.86
28.136,7.716
28.14,7.84
28.144,7.964
28.148,7.892
28.152,7.804
28.156,7.908
28.16,8.044
28.164,7.984
28.168,7.828
28.172,7.816
28.176,7.972
28.18,8.02
28.184,7.888
28.188,7.904
28.192,8.064
28.196,8.032
28.2,7.868
28.204,7.812
28.208,7.928
28.212,7.996
28.216,7.86
28.22,7.772
28.224,7.904
28.228,7.984
28.232,7.828
28.236,7.704
28.24,7.784
28.244,7.888
28.248,7.808
28.252,7.692
28.256,7.772
28.26,7.892
28.264,7.852
28.268,7.684
28.272,7.736
28.276,7.884
28.28,7.876
28.284,7.664
28.288,7.576
28.292,7.744
28.296,7.856
28.3,7.924
28.304,8.288
28.308,8.972
28.312,9.656
28.316,10.048
28.32,9.912
28.324,9.456
28.328,8.988
28.332,8.376
28.336,7.772
28.34,7.608
28.344,7.788
28.348,7.78
28.352,7.74
28.356,7.86
28.36,8.012
28.364,7.94
28.368,7.796
28.372,7.812
28.376,7.964
28.38,7.96
28.384,7.82
28.388,7.796
28.392,7.956
28.396,7.964
28.4,7.828
28.404,7.792
28.408,7.932
28.412,8.028
28.416,7.884
28.42,7.78
28.424,7.96
28.428,8.028
28.432,7.904
28.436,7.792
28.44,7.944
28.444,8.056
28.448,7.956
28.452,7.844
28.456,7.92
28.46,8.04
28.464,8.02
28.468,7.884
28.472,7.92
28.476,8.076
28.48,8.084
28.484,7.968
28.488,7.952
28.492,8.108
28.496,8.152
28.5,8.024
28.504,7.984
28.508,8.144
28.512,8.252
28.516,8.128
28.52,8.04
28.524,8.196
28.528,8.336
28.532,8.24
28.536,8.156
28.54,8.308
28.544,8.432
28.548,8.364
28.552,8.296
28.556,8.4
28.56,8.556
28.564,8.516
28.568,8.428
28.572,8.496
28.576,8.656
28.58,8.692
28.584,8.564
28.588,8.576
28.592,8.768
28.596,8.824
28.6,8.688
28.604,8.6
28.608,8.752
28.612,8.808
28.616,8.636
28.62,8.484
28.624,8.528
28.628,8.612
28.632,8.416
28.636,8.22
28.64,8.26
28.644,8.364
28.648,8.204
28.652,7.996
28.656,8.036
28.66,8.132
28.664,8.072
28.668,7.872
28.672,7.888
28.676,8.004
28.68,8.016
28.684,7.86
28.688,7.804
28.692,7.932
28.696,8.016
28.7,7.868
28.704,7.8
28.708,7.916
28.712,8.02
28.716,7.864
28.72,7.768
28.724,7.888
28.728,8.016
28.732,7.9
28.736,7.764
28.74,7.856
28.744,8.028
28.748,7.952
28.752,7.792
28.756,7.828
28.76,7.968
28.764,7.952
28.768,7.812
28.772,7.824
28.776,7.96
28.78,7.972
28.784,7.824
28.788,7.8
28.792,7.952
28.796,7.976
28.8,7.848
28.804,7.756
28.808,7.908
28.812,8.012
28.816,7.86
28.82,7.776
28.824,7.884
28.828,8.008
28.832,7.892
28.836,7.748
28.84,7.852
28.844,7.984
28.848,7.892
28.852,7.736
28.856,7.808
28.86,7.96
28.864,7.9
28.868,7.772
28.872,7.812
28.876,7.952
28.88,7.948
28.884,7.796
28.888,7.74
28.892,7.912
28.896,7.988
28.9,7.828
28.904,7.76
28.908,7.916
28.912,8.04
28.916,7.92
28.92,7.816
28.924,7.96
28.928,8.116
28.932,7.968
28.936,7.836
28.94,7.932
28.944,8.096
28.948,8.064
28.952,7.94
28.956,7.992
28.96,8.112
28.964,8.036
28.968,7.872
28.972,7.844
28.976,7.996
28.98,8.004
28.984,7.844
28.988,7.796
28.992,7.924
28.996,7.96
29,7.82
29.004,7.696
29.008,7.832
29.012,7.94
29.016,7.792
29.02,7.696
29.024,7.816
29.028,7.932
29.032,7.816
29.036,7.68
29.04,7.784
29.044,7.92
29.048,7.808
29.052,7.604
29.056,7.612
29.06,7.824
29.064,7.94
29.068,8.12
29.072,8.604
29.076,9.284
29.08,9.928
29.084,10.048
29.088,9.656
29.092,9.204
29.096,8.76
29.1,8.128
29.104,7.596
29.108,7.66
29.112,7.848
29.116,7.8
29.12,7.756
29.124,7.92
29.128,8.04
29.132,7.904
29.136,7.768
29.14,7.88
29.144,7.988
29.148,7.916
29.152,7.772
29.156,7.86
29.16,7.992
29.164,7.956
29.168,7.828
29.172,7.844
29.176,7.976
29.18,8
29.184,7.864
29.188,7.844
29.192,7.992
29.196,8.036
29.2,7.888
29.204,7.816
29.208,7.96
29.212,8.084
29.216,7.94
29.22,7.868
29.224,7.968
29.228,8.12
29.232,8.004
29.236,7.884
29.24,8.008
29.244,8.14
29.248,8.044
29.252,7.944
29.256,8
29.26,8.176
29.264,8.144
29.268,8.02
29.272,8.032
29.276,8.22
29.28,8.26
29.284,8.088
29.288,8.096
29.292,8.284
29.296,8.36
29.3,8.256
29.304,8.192
29.308,8.376
29.312,8.488
29.316,8.4
29.32,8.324
29.324,8.476
29.328,8.64
29.332,8.556
29.336,8.48
29.34,8.596
29.344,8.784
29.348,8.732
29.352,8.62
29.356,8.68
29.36,8.872
29.364,8.856
29.368,8.708
29.372,8.688
29.376,8.86
29.38,8.84
29.384,8.656
29.388,8.552
29.392,8.66
29.396,8.616
29.4,8.408
29.404,8.28
29.408,8.376
29.412,8.392
29.416,8.204
29.42,8.056
29.424,8.144
29.428,8.244
29.432,8.072
29.436,7.948
29.44,8
29.444,8.124
29.448,8.04
29.452,7.908
29.456,7.94
29.46,8.104
29.464,8.056
29.468,7.916
29.472,7.908
29.476,8.084
29.48,8.072
29.484,7.916
29.488,7.884
29.492,8.06
29.496,8.108
29.5,7.948
29.504,7.868
29.508,8.036
29.512,8.136
29.516,7.996
29.52,7.876
29.524,7.984
29.528,8.108
29.532,8.012
29.536,7.86
29.54,7.976
29.544,8.104
29.548,8.04
29.552,7.884
29.556,7.948
29.56,8.084
29.564,8.06
29.568,7.892
29.572,7.884
29.576,8.08
29.58,8.072
29.584,7.908
29.588,7.832
29.592,8.04
29.596,8.1
29.6,7.94
29.604,7.808
29.608,8
29.612,8.092
29.616,7.956
29.62,7.8
29.624,7.96
29.628,8.088
29.632,7.944
29.636,7.804
29.64,7.92
29.644,8.068
29.648,7.98
29.652,7.836
29.656,7.876
29.66,8.056
29.664,8
29.668,7.852
29.672,7.832
29.676,8.016
29.68,8.032
29.684,7.876
29.688,7.816
29.692,7.988
29.696,8.044
29.7,7.94
29.704,7.864
29.708,8.056
29.712,8.168
29.716,8.028
29.72,7.904
29.724,8.048
29.728,8.18
29.732,8.088
29.736,8.004
29.74,8.076
29.744,8.196
29.748,8.092
29.752,7.936
29.756,7.976
29.76,8.1
29.764,8.048
29.768,7.9
29.772,7.888
29.776,8.032
29.78,8.012
29.784,7.88
29.788,7.788
29.792,7.984
29.796,8.012
29.8,7.856
29.804,7.76
29.808,7.92
29.812,8.044
29.816,7.88
29.82,7.736
29.824,7.892
29.828,8.048
29.832,7.904
29.836,7.704
29.84,7.744
29.844,7.888
29.848,7.892
29.852,7.996
29.856,8.436
29.86,9.136
29.864,9.72
29.868,10.056
29.872,10.008
29.876,9.62
29.88,9.072
29.884,8.456
29.888,7.856
29.892,7.788
29.896,7.888
29.9,7.812
29.904,7.784
29.908,8.02
29.912,8.156
29.916,8
29.92,7.856
29.924,7.988
29.928,8.116
29.932,7.988
29.936,7.848
29.94,7.964
29.944,8.128
29.948,8.032
29.952,7.9
29.956,7.956
29.96,8.156
29.964,8.08
29.968,7.924
29.972,7.9
29.976,8.128
29.98,8.144
29.984,7.968
29.988,7.92
29.992,8.12
29.996,8.176
30,8.02
30.004,7.912
30.008,8.104
30.012,8.232
30.016,8.072
30.02,7.972
30.024,8.1
30.028,8.284
30.032,8.112
30.036,8.024
30.04,8.136
30.044,8.308
30.048,8.212
30.052,8.068
30.056,8.124
30.06,8.356
30.064,8.32
30.068,8.168
30.072,8.192
30.076,8.404
30.08,8.444
30.084,8.296
30.088,8.276
30.092,8.508
30.096,8.58
30.1,8.452
30.104,8.396
30.108,8.62
30.112,8.744
30.116,8.616
30.12,8.504
30.124,8.72
30.128,8.892
30.132,8.736
30.136,8.664
30.14,8.784
30.144,8.992
30.148,8.872
30.152,8.756
30.156,8.808
30.16,8.988
30.164,8.876
30.168,8.724
30.172,8.652
30.176,8.82
30.18,8.752
30.184,8.504
30.188,8.384
30.192,8.52
30.196,8.532
30.2,8.292
30.204,8.148
30.208,8.276
30.212,8.368
30.216,8.14
30.22,8.008
30.224,8.116
30.228,8.26
30.232,8.088
30.236,7.98
30.24,8.032
30.244,8.244
30.248,8.104
30.252,7.964
30.256,8.004
30.26,8.192
30.264,8.16
30.268,7.976
30.272,7.952
30.276,8.168
30.28,8.192
30.284,7.992
30.288,7.932
30.292,8.144
30.296,8.228
30.3,8.052
30.304,7.944
30.308,8.108
30.312,8.2
30.316,8.032
30.32,7.944
30.324,8.08
30.328,8.208
30.332,8.02
30.336,7.896
30.34,7.988
30.344,8.164
30.348,8.028
30.352,7.892
30.356,7.9
30.36,8.108
30.364,8.048
30.368,7.864
30.372,7.848
30.376,8.024
30.38,8.064
30.384,7.892
30.388,7.82
30.392,7.976
30.396,8.044
30.4,7.844
30.404,7.776
30.408,7.92
30.412,8.056
30.416,7.852
30.42,7.752
30.424,7.876
30.428,8.056
30.432,7.876
30.436,7.696
30.44,7.816
30.444,8.028
30.448,7.9
30.452,7.752
30.456,7.772
30.46,7.976
30.464,7.908
30.468,7.764
30.472,7.74
30.476,7.948
30.48,7.96
30.484,7.748
30.488,7.7
30.492,7.9
30.496,7.996
30.5,7.816
30.504,7.74
30.508,7.944
30.512,8.096
30.516,7.94
30.52,7.788
30.524,7.936
30.528,8.112
30.532,8.048
30.536,7.92
30.54,7.976
30.544,8.136
30.548,7.976
30.552,7.82
30.556,7.848
30.56,8.012
30.564,7.964
30.568,7.784
30.572,7.792
30.576,7.984
30.58,7.976
30.584,7.764
30.588,7.704
30.592,7.896
30.596,7.948
30.6,7.764
30.604,7.688
30.608,7.808
30.612,7.952
30.616,7.796
30.62,7.672
30.624,7.824
30.628,7.972
30.632,7.816
30.636,7.628
30.64,7.64
30.644,7.856
30.648,7.86
30.652,7.976
30.656,8.464
30.66,9.18
30.664,9.804
30.668,10.056
30.672,9.84
30.676,9.424
30.68,8.928
30.684,8.26
30.688,7.712
30.692,7.692
30.696,7.868
30.7,7.784
30.704,7.752
30.708,7.968
30.712,8.108
30.716,7.912
30.72,7.796
30.724,7.932
30.728,8.096
30.732,7.94
30.736,7.808
30.74,7.888
30.744,8.08
30.748,7.988
30.752,7.808
30.756,7.852
30.76,8.08
30.764,8.048
30.768,7.864
30.772,7.856
30.776,8.064
30.78,8.1
30.784,7.896
30.788,7.844
30.792,8.056
30.796,8.144
30.8,7.976
30.804,7.888
30.808,8.088
30.812,8.228
30.816,8.028
30.82,7.904
30.824,8.052
30.828,8.252
30.832,8.116
30.836,7.968
30.84,8.076
30.844,8.292
30.848,8.204
30.852,8.06
30.856,8.136
30.86,8.34
30.864,8.344
30.868,8.196
30.872,8.192
30.876,8.44
30.88,8.472
30.884,8.296
30.888,8.268
30.892,8.516
30.896,8.648
30.9,8.472
30.904,8.372
30.908,8.596
30.912,8.808
30.916,8.656
30.92,8.56
30.924,8.664
30.928,8.904
30.932,8.8
30.936,8.692
30.94,8.772
30.944,8.984
30.948,8.92
30.952,8.796
30.956,8.792
30.96,9.004
30.964,8.932
30.968,8.716
30.972,8.64
30.976,8.8
30.98,8.752
30.984,8.468
30.988,8.364
30.992,8.484
30.996,8.54
31,8.288
31.004,8.136
31.008,8.224
31.012,8.348
31.016,8.144
31.02,8.028
31.024,8.136
31.028,8.3
31.032,8.032
31.036,7.92
31.04,8.036
31.044,8.208
31.048,8.14
31.052,7.96
31.056,7.948
31.06,8.156
31.064,8.152
31.068,7.924
31.072,7.896
31.076,8.104
31.08,8.152
31.084,7.952
31.088,7.916
31.092,8.116
31.096,8.2
31.1,8.004
31.104,7.904
31.108,8.072
31.112,8.232
31.116,8.016
31.12,7.924
31.124,8.064
31.128,8.268
31.132,8.112
31.136,7.956
31.14,7.992
31.144,8.204
31.148,8.132
31.152,7.984
31.156,7.956
31.16,8.208
31.164,8.18
31.168,7.968
31.172,7.98
31.176,8.168
31.18,8.22
31.184,8.092
31.188,7.952
31.192,8.1
31.196,8.276
31.2,8.032
31.204,7.948
31.208,8.052
31.212,8.148
31.216,8.032
31.22,7.88
31.224,7.976
31.228,8.22
31.232,8.092
31.236,7.952
31.24,7.928
31.244,8.176
31.248,8.072
31.252,7.896
31.256,7.924
31.26,8.148
31.264,8.128
31.268,7.924
31.272,7.944
31.276,8.2
31.28,8.276
31.284,8.068
31.288,8.08
31.292,8.196
31.296,8.352
31.3,8.124
31.304,8.056
31.308,8.232
31.312,8.392
31.316,8.136
31.32,8.02
31.324,8.108
31.328,8.324
31.332,8.08
31.336,7.948
31.34,8.028
31.344,8.216
31.348,8.088
31.352,7.968
31.356,7.972
31.36,8.164
31.364,8.068
31.368,7.848
31.372,7.848
31.376,8.048
31.38,8.12
31.384,7.864
31.388,7.78
31.392,7.944
31.396,8.092
31.4,7.848
31.404,7.784
31.408,7.88
31.412,8.012
31.416,7.832
31.42,7.792
31.424,8.084
31.428,8.704
31.432,9.048
31.436,9.52
31.44,10.168
31.444,10.384
31.448,9.78
31.452,9.048
31.456,8.56
31.46,8.236
31.464,7.872
31.468,7.724
31.472,7.828
31.476,8.104
31.48,8.208
31.484,8.02
31.488,8.012
31.492,8.136
31.496,8.244
31.5,8.064
31.504,7.948
31.508,8.116
31.512,8.264
31.516,8.064
31.52,7.908
31.524,8.032
31.528,8.24
31.532,8.168
31.536,7.972
31.54,8.028
31.544,8.22
31.548,8.168
31.552,8.008
31.556,8.068
31.56,8.232
31.564,8.208
31.568,8.024
31.572,8.028
31.576,8.248
31.58,8.316
31.584,8.072
31.588,8.072
31.592,8.248
31.596,8.396
31.6,8.196
31.604,8.128
31.608,8.236
31.612,8.404
31.616,8.288
31.62,8.164
31.624,8.268
31.628,8.46
31.632,8.34
31.636,8.264
31.64,8.348
31.644,8.52
31.648,8.52
31.652,8.336
31.656,8.4
31.66,8.636
31.664,8.66
31.668,8.46
31.672,8.536
31.676,8.724
31.68,8.836
31.684,8.692
31.688,8.7
31.692,8.84
31.696,9.012
31.7,8.848
31.704,8.764
31.708,8.948
31.712,9.172
31.716,8.988
31.72,8.884
31.724,9.056
31.728,9.22
31.732,9.132
31.736,8.944
31.74,8.944
31.744,9.1
31.748,8.98
31.752,8.72
31.756,8.74
31.76,8.844
31.764,8.78
31.768,8.48
31.772,8.396
31.776,8.52
31.78,8.556
31.784,8.268
31.788,8.2
31.792,8.3
31.796,8.448
31.8,8.204
31.804,8.068
31.808,8.232
31.812,8.404
31.816,8.212
31.82,8.044
31.824,8.16
31.828,8.444
31.832,8.28
31.836,8.036
31.84,8.14
31.844,8.332
31.848,8.284
31.852,8.1
31.856,8.136
31.86,8.304
31.864,8.272
31.868,8.08
31.872,8.116
31.876,8.284
31.88,8.324
31.884,8.104
31.888,8.052
31.892,8.244
31.896,8.364
31.9,8.12
31.904,8.044
31.908,8.192
31.912,8.392
31.916,8.184
31.92,8.016
31.924,8.128
31.928,8.292
31.932,8.172
31.936,8.052
31.94,8.144
31.944,8.316
31.948,8.204
31.952,8.068
31.956,8.112
31.96,8.28
31.964,8.256
31.968,8.012
31.972,8.048
31.976,8.264
31.98,8.304
31.984,8.04
31.988,8.044
31.992,8.208
31.996,8.328
32,8.128
32.004,8.068
32.008,8.272
32.012,8.404
32.016,8.22
32.02,8.124
32.024,8.256
32.028,8.416
32.032,8.264
32.036,8.2
32.04,8.352
32.044,8.496
32.048,8.38
32.052,8.144
32.056,8.192
32.06,8.348
32.064,8.304
32.068,8.08
32.072,8.068
32.076,8.248
32.08,8.284
32.084,8.02
32.088,7.972
32.092,8.12
32.096,8.232
32.1,8.016
32.104,7.948
32.108,8.084
32.112,8.224
32.116,8.068
32.12,7.916
32.124,8.056
32.128,8.236
32.132,8.124
32.136,7.908
32.14,7.952
32.144,8.052
32.148,8.04
32.152,7.944
32.156,8.312
32.16,8.908
32.164,9.412
32.168,9.804
32.172,10.172
32.176,10.12
32.18,9.552
32.184,8.864
32.188,8.296
32.192,8.016
32.196,7.968
32.2,7.78
32.204,7.804
32.208,8.068
32.212,8.272
32.216,8.112
32.22,7.948
32.224,8.1
32.228,8.264
32.232,8.136
32.236,7.936
32.24,8.04
32.244,8.236
32.248,8.148
32.252,7.936
32.256,8.036
32.26,8.232
32.264,8.232
32.268,8.008
32.272,8.02
32.276,8.2
32.28,8.272
32.284,8.028
32.288,7.968
32.292,8.188
32.296,8.3
32.3,8.08
32.304,7.948
32.308,8.136
32.312,8.3
32.316,8.156
32.32,7.972
32.324,8.148
32.328,8.316
32.332,8.22
32.336,8.012
32.34,8.16
32.344,8.352
32.348,8.288
32.352,8.068
32.356,8.136
32.36,8.356
32.364,8.352
32.368,8.164
32.372,8.168
32.376,8.388
32.38,8.488
32.384,8.332
32.388,8.264
32.392,8.464
32.396,8.6
32.4,8.436
32.404,8.368
32.408,8.568
32.412,8.78
32.416,8.644
32.42,8.48
32.424,8.664
32.428,8.86
32.432,8.76
32.436,8.576
32.44,8.736
32.444,8.96
32.448,8.92
32.452,8.748
32.456,8.768
32.46,8.952
32.464,8.936
32.468,8.7
32.472,8.636
32.476,8.776
32.48,8.764
32.484,8.52
32.488,8.38
32.492,8.48
32.496,8.544
32.5,8.276
32.504,8.084
32.508,8.248
32.512,8.348
32.516,8.144
32.52,7.952
32.524,8.084
32.528,8.244
32.532,8.088
32.536,7.896
32.54,7.992
32.544,8.164
32.548,8.124
32.552,7.908
32.556,7.968
32.56,8.156
32.564,8.136
32.568,7.948
32.572,7.912
32.576,8.12
32.58,8.16
32.584,7.968
32.588,7.832
32.592,8.056
32.596,8.212
32.6,8.008
32.604,7.828
32.608,8.024
32.612,8.176
32.616,8.052
32.62,7.82
32.624,7.972
32.628,8.168
32.632,8.056
32.636,7.872
32.64,7.944
32.644,8.156
32.648,8.1
32.652,7.884
32.656,7.876
32.66,8.132
32.664,8.116
32.668,7.92
32.672,7.796
32.676,8.048
32.68,8.152
32.684,7.944
32.688,7.8
32.692,8.016
32.696,8.148
32.7,8.004
32.704,7.836
32.708,8.032
32.712,8.26
32.716,8.116
32.72,7.956
32.724,8
32.728,8.268
32.732,8.152
32.736,7.996
32.74,8.048
32.744,8.304
32.748,8.252
32.752,8
32.756,7.972
32.76,8.156
32.764,8.18
32.768,7.972
32.772,7.856
32.776,8.068
32.78,8.148
32.784,7.964
32.788,7.832
32.792,7.948
32.796,8.18
32.8,7.944
32.804,7.76
32.808,7.896
32.812,8.16
32.816,7.992
32.82,7.768
32.824,7.896
32.828,8.152
32.832,8.048
32.836,7.836
32.84,7.748
32.844,7.9
32.848,7.956
32.852,7.932
32.856,8.244
32.86,8.884
32.864,9.492
32.868,9.94
32.872,10.136
32.876,9.928
32.88,9.472
32.884,8.756
32.888,8.108
32.892,7.868
32.896,7.9
32.9,7.824
32.904,7.748
32.908,7.98
32.912,8.212
32.916,8.096
32.92,7.864
32.924,7.984
32.928,8.168
32.932,8.104
32.936,7.912
32.94,7.992
32.944,8.16
32.948,8.096
32.952,7.936
32.956,7.956
32.96,8.156
32.964,8.16
32.968,7.984
32.972,7.952
32.976,8.116
32.98,8.192
32.984,8.032
32.988,7.932
32.992,8.108
32.996,8.232
33,8.072
33.004,7.98
33.008,8.1
33.012,8.272
33.016,8.148
33.02,8.016
33.024,8.136
33.028,8.304
33.032,8.184
33.036,8.092
33.04,8.188
33.044,8.356
33.048,8.288
33.052,8.148
33.056,8.168
33.06,8.368
33.064,8.372
33.068,8.24
33.072,8.244
33.076,8.428
33.08,8.516
33.084,8.336
33.088,8.312
33.092,8.52
33.096,8.66
33.1,8.504
33.104,8.428
33.108,8.624
33.112,8.792
33.116,8.66
33.12,8.54
33.124,8.748
33.128,8.908
33.132,8.852
33.136,8.668
33.14,8.772
33.144,8.996
33.148,8.972
33.152,8.804
33.156,8.8
33.16,8.992
33.164,8.972
33.168,8.752
33.172,8.668
33.176,8.784
33.18,8.8
33.184,8.556
33.188,8.38
33.192,8.52
33.196,8.588
33.2,8.344
33.204,8.172
33.208,8.288
33.212,8.408
33.216,8.24
33.22,8.048
33.224,8.16
33.228,8.304
33.232,8.192
33.236,8.044
33.24,8.084
33.244,8.248
33.248,8.196
33.252,8.044
33.256,8.028
33.26,8.216
33.264,8.216
33.268,8.032
33.272,8.012
33.276,8.168
33.28,8.276
33.284,8.068
33.288,7.976
33.292,8.144
33.296,8.276
33.3,8.136
33.304,8.008
33.308,8.112
33.312,8.284
33.316,8.144
33.32,7.98
33.324,8.092
33.328,8.248
33.332,8.152
33.336,7.988
33.34,8.052
33.344,8.232
33.348,8.164
33.352,7.98
33.356,7.992
33.36,8.176
33.364,8.196
33.368,7.988
33.372,7.932
33.376,8.12
33.38,8.204
33.384,8.024
33.388,7.904
33.392,8.048
33.396,8.168
33.4,8.052
33.404,7.928
33.408,8.104
33.412,8.268
33.416,8.144
33.42,7.952
33.424,8.084
33.428,8.236
33.432,8.14
33.436,8.012
33.44,8.084
33.444,8.26
33.448,8.168
33.452,8
33.456,7.956
33.46,8.096
33.464,8.096
33.468,7.908
33.472,7.84
33.476,8.032
33.48,8.064
33.484,7.872
33.488,7.744
33.492,7.912
33.496,7.992
33.5,7.804
33.504,7.672
33.508,7.844
33.512,8.02
33.516,7.84
33.52,7.68
33.524,7.792
33.528,7.996
33.532,7.876
33.536,7.64
33.54,7.6
33.544,7.796
33.548,7.848
33.552,7.88
33.556,8.296
33.56,8.968
33.564,9.592
33.568,9.896
33.572,9.792
33.576,9.468
33.58,8.992
33.584,8.34
33.588,7.696
33.592,7.576
33.596,7.716
33.6,7.668
33.604,7.576
33.608,7.808
33.612,8.008
33.616,7.892
33.62,7.712
33.624,7.788
33.628,7.984
33.632,7.868
33.636,7.708
33.64,7.788
33.644,7.964
33.648,7.924
33.652,7.72
33.656,7.736
33.66,7.936
33.664,7.956
33.668,7.736
33.672,7.696
33.676,7.908
33.68,7.98
33.684,7.82
33.688,7.692
33.692,7.876
33.696,8.012
33.7,7.844
33.704,7.716
33.708,7.884
33.712,8.032
33.716,7.888
33.72,7.76
33.724,7.888
33.728,8.068
33.732,7.956
33.736,7.796
33.74,7.876
33.744,8.088
33.748,8.048
33.752,7.892
33.756,7.888
33.76,8.128
33.764,8.14
33.768,7.992
33.772,7.924
33.776,8.172
33.78,8.272
33.784,8.104
33.788,8.044
33.792,8.228
33.796,8.388
33.8,8.24
33.804,8.132
33.808,8.348
33.812,8.536
33.816,8.396
33.82,8.268
33.824,8.412
33.828,8.628
33.832,8.548
33.836,8.404
33.84,8.488
33.844,8.7
33.848,8.664
33.852,8.488
33.856,8.456
33.86,8.644
33.864,8.624
33.868,8.396
33.872,8.284
33.876,8.432
33.88,8.432
33.884,8.172
33.888,7.996
33.892,8.144
33.896,8.188
33.9,7.992
33.904,7.772
33.908,7.896
33.912,8.028
33.916,7.852
33.92,7.668
33.924,7.768
33.928,7.92
33.932,7.808
33.936,7.656
33.94,7.692
33.944,7.896
33.948,7.84
33.952,7.668
33.956,7.668
33.96,7.872
33.964,7.84
33.968,7.66
33.972,7.612
33.976,7.808
33.98,7.88
33.984,7.704
33.988,7.576
33.992,7.772
33.996,7.88
34,7.748
34.004,7.564
34.008,7.728
34.012,7.88
34.016,7.728
34.02,7.576
34.024,7.716
34.028,7.84
34.032,7.748
34.036,7.58
34.04,7.652
34.044,7.84
34.048,7.772
34.052,7.576
34.056,7.584
34.06,7.792
34.064,7.804
34.068,7.62
34.072,7.56
34.076,7.768
34.08,7.844
34.084,7.712
34.088,7.628
34.092,7.792
34.096,7.916
34.1,7.752
34.104,7.608
34.108,7.816
34.112,7.992
34.116,7.86
34.12,7.656
34.124,7.756
34.128,7.892
34.132,7.784
34.136,7.552
34.14,7.632
34.144,7.792
34.148,7.764
34.152,7.576
34.156,7.548
34.16,7.62
34.164,7.724
34.168,7.56
34.172,7.468
34.176,7.652
34.18,7.724
34.184,7.536
34.188,7.42
34.192,7.632
34.196,7.744
34.2,7.572
34.204,7.42
34.208,7.544
34.212,7.64
34.216,7.448
34.22,7.356
34.224,7.648
34.228,8.22
34.232,8.668
34.236,9.108
34.24,9.696
34.244,9.932
34.248,9.408
34.252,8.664
34.256,8.192
34.26,7.872
34.264,7.528
34.268,7.328
34.272,7.352
34.276,7.636
34.28,7.804
34.284,7.636
34.288,7.52
34.292,7.716
34.296,7.84
34.3,7.7
34.304,7.528
34.308,7.676
34.312,7.824
34.316,7.72
34.32,7.516
34.324,7.652
34.328,7.816
34.332,7.748
34.336,7.592
34.34,7.66
34.344,7.828
34.348,7.808
34.352,7.624
34.356,7.628
34.36,7.828
34.364,7.856
34.368,7.684
34.372,7.624
34.376,7.808
34.38,7.912
34.384,7.744
34.388,7.648
34.392,7.816
34.396,7.96
34.4,7.796
34.404,7.664
34.408,7.832
34.412,8.008
34.416,7.888
34.42,7.708
34.424,7.868
34.428,8.044
34.432,7.968
34.436,7.828
34.44,7.896
34.444,8.104
34.448,8.108
34.452,7.96
34.456,7.956
34.46,8.204
34.464,8.26
34.468,8.096
34.472,8.04
34.476,8.276
34.48,8.38
34.484,8.228
34.488,8.164
34.492,8.36
34.496,8.52
34.5,8.372
34.504,8.224
34.508,8.416
34.512,8.616
34.516,8.496
34.52,8.324
34.524,8.448
34.528,8.62
34.532,8.488
34.536,8.288
34.54,8.284
34.544,8.412
34.548,8.296
34.552,8.06
34.556,8.02
34.56,8.148
34.564,8.12
34.568,7.888
34.572,7.756
34.576,7.92
34.58,7.988
34.584,7.78
34.588,7.616
34.592,7.784
34.596,7.92
34.6,7.756
34.604,7.572
34.608,7.712
34.612,7.876
34.616,7.752
34.62,7.588
34.624,7.672
34.628,7.848
34.632,7.752
34.636,7.596
34.64,7.64
34.644,7.828
34.648,7.8
34.652,7.632
34.656,7.608
34.66,7.824
34.664,7.836
34.668,7.644
34.672,7.576
34.676,7.776
34.68,7.852
34.684,7.7
34.688,7.556
34.692,7.74
34.696,7.872
34.7,7.724
34.704,7.552
34.708,7.732
34.712,7.864
34.716,7.736
34.72,7.548
34.724,7.672
34.728,7.804
34.732,7.752
34.736,7.568
34.74,7.628
34.744,7.792
34.748,7.784
34.752,7.584
34.756,7.596
34.76,7.752
34.764,7.824
34.768,7.704
34.772,7.632
34.776,7.812
34.78,7.904
34.784,7.76
34.788,7.612
34.792,7.82
34.796,7.98
34.8,7.844
34.804,7.636
34.808,7.772
34.812,7.888
34.816,7.76
34.82,7.576
34.824,7.664
34.828,7.784
34.832,7.772
34.836,7.572
34.84,7.596
34.844,7.68
34.848,7.72
34.852,7.528
34.856,7.516
34.86,7.632
34.864,7.752
34.868,7.568
34.872,7.472
34.876,7.608
34.88,7.748
34.884,7.604
34.888,7.448
34.892,7.56
34.896,7.62
34.9,7.492
34.904,7.4
34.908,7.736
34.912,8.252
34.916,8.728
34.92,9.112
34.924,9.752
34.928,9.928
34.932,9.388
34.936,8.628
34.94,8.196
34.944,7.804
34.948,7.512
34.952,7.348
34.956,7.448
34.96,7.672
34.964,7.816
34.968,7.66
34.972,7.552
34.976,7.676
34.98,7.848
34.984,7.688
34.988,7.544
34.992,7.668
34.996,7.828
35,7.736
35.004,7.564
35.008,7.668
35.012,7.804
35.016,7.76
35.02,7.572
35.024,7.676
35.028,7.792
35.032,7.804
35.036,7.628
35.04,7.652
35.044,7.808
35.048,7.852
35.052,7.664
35.056,7.656
35.06,7.8
35.064,7.92
35.068,7.768
35.072,7.656
35.076,7.82
35.08,7.996
35.084,7.836
35.088,7.712
35.092,7.844
35.096,8.012
35.1,7.908
35.104,7.736
35.108,7.876
35.112,8.04
35.116,8.024
35.12,7.832
35.124,7.912
35.128,8.108
35.132,8.152
35.136,7.964
35.14,7.992
35.144,8.172
35.148,8.292
35.152,8.132
35.156,8.096
35.16,8.252
35.164,8.388
35.168,8.236
35.172,8.188
35.176,8.348
35.18,8.528
35.184,8.4
35.188,8.288
35.192,8.412
35.196,8.644
35.2,8.556
35.204,8.36
35.208,8.456
35.212,8.62
35.216,8.556
35.22,8.32
35.224,8.324
35.228,8.432
35.232,8.4
35.236,8.136
35.24,8.076
35.244,8.16
35.248,8.164
35.252,7.904
35.256,7.844
35.26,7.952
35.264,8.028
35.268,7.788
35.272,7.684
35.276,7.8
35.28,7.944
35.284,7.788
35.288,7.608
35.292,7.716
35.296,7.904
35.3,7.768
35.304,7.6
35.308,7.684
35.312,7.888
35.316,7.788
35.32,7.604
35.324,7.668
35.328,7.844
35.332,7.82
35.336,7.596
35.34,7.664
35.344,7.796
35.348,7.86
35.352,7.636
35.356,7.604
35.36,7.756
35.364,7.896
35.368,7.696
35.372,7.576
35.376,7.688
35.38,7.9
35.384,7.736
35.388,7.576
35.392,7.692
35.396,7.908
35.4,7.764
35.404,7.588
35.408,7.692
35.412,7.884
35.416,7.78
35.42,7.564
35.424,7.636
35.428,7.84
35.432,7.796
35.436,7.6
35.44,7.596
35.444,7.756
35.448,7.816
35.452,7.608
35.456,7.576
35.46,7.712
35.464,7.816
35.468,7.66
35.472,7.6
35.476,7.748
35.48,7.928
35.484,7.792
35.488,7.624
35.492,7.74
35.496,7.924
35.5,7.78
35.504,7.676
35.508,7.788
35.512,7.992
35.516,7.86
35.52,7.648
35.524,7.684
35.528,7.84
35.532,7.788
35.536,7.588
35.54,7.6
35.544,7.776
35.548,7.776
35.552,7.576
35.556,7.516
35.56,7.668
35.564,7.764
35.568,7.544
35.572,7.476
35.576,7.62
35.58,7.784
35.584,7.608
35.588,7.44
35.592,7.556
35.596,7.808
35.6,7.636
35.604,7.404
35.608,7.396
35.612,7.62
35.616,7.6
35.62,7.628
35.624,8.06
35.628,8.78
35.632,9.348
35.636,9.708
35.64,9.724
35.644,9.392
35.648,8.856
35.652,8.184
35.656,7.64
35.66,7.444
35.664,7.6
35.668,7.492
35.672,7.464
35.676,7.668
35.68,7.888
35.684,7.716
35.688,7.548
35.692,7.656
35.696,7.88
35.7,7.704
35.704,7.512
35.708,7.616
35.712,7.856
35.716,7.712
35.72,7.564
35.724,7.612
35.728,7.844
35.732,7.792
35.736,7.588
35.74,7.596
35.744,7.828
35.748,7.848
35.752,7.64
35.756,7.596
35.76,7.792
35.764,7.896
35.768,7.716
35.772,7.62
35.776,7.78
35.78,7.92
35.784,7.776
35.788,7.652
35.792,7.756
35.796,7.988
35.8,7.82
35.804,7.68
35.808,7.764
35.812,8.032
35.816,7.924
35.82,7.744
35.824,7.808
35.828,8.052
35.832,8.04
35.836,7.868
35.84,7.888
35.844,8.112
35.848,8.164
35.852,8.012
35.856,7.988
35.86,8.184
35.864,8.3
35.868,8.144
35.872,8.076
35.876,8.264
35.88,8.444
35.884,8.284
35.888,8.192
35.892,8.328
35.896,8.576
35.9,8.42
35.904,8.292
35.908,8.388
35.912,8.664
35.916,8.544
35.92,8.372
35.924,8.416
35.928,8.62
35.932,8.52
35.936,8.288
35.94,8.252
35.944,8.4
35.948,8.32
35.952,8.104
35.956,7.972
35.96,8.092
35.964,8.132
35.968,7.876
35.972,7.756
35.976,7.876
35.98,8.008
35.984,7.792
35.988,7.64
35.992,7.728
35.996,7.956
36,7.792
36.004,7.592
36.008,7.692
36.012,7.916
36.016,7.78
36.02,7.596
36.024,7.656
36.028,7.876
36.032,7.828
36.036,7.632
36.04,7.608
36.044,7.864
36.048,7.848
36.052,7.664
36.056,7.588
36.06,7.808
36.064,7.904
36.068,7.732
36.072,7.616
36.076,7.748
36.08,7.892
36.084,7.72
36.088,7.592
36.092,7.724
36.096,7.9
36.1,7.74
36.104,7.596
36.108,7.668
36.112,7.896
36.116,7.784
36.12,7.592
36.124,7.64
36.128,7.868
36.132,7.8
36.136,7.62
36.14,7.624
36.144,7.828
36.148,7.848
36.152,7.64
36.156,7.592
36.16,7.784
36.164,7.856
36.168,7.66
36.172,7.572
36.176,7.736
36.18,7.872
36.184,7.688
36.188,7.532
36.192,7.688
36.196,7.908
36.2,7.704
36.204,7.52
36.208,7.636
36.212,7.86
36.216,7.74
36.22,7.54
36.224,7.612
36.228,7.832
36.232,7.768
36.236,7.588
36.24,7.592
36.244,7.808
36.248,7.788
36.252,7.616
36.256,7.596
36.26,7.82
36.264,7.928
36.268,7.72
36.272,7.636
36.276,7.784
36.28,7.936
36.284,7.78
36.288,7.668
36.292,7.808
36.296,8.008
36.3,7.82
36.304,7.624
36.308,7.68
36.312,7.892
36.316,7.752
36.32,7.556
36.324,7.592
36.328,7.776
36.332,7.708
36.336,7.512
36.34,7.48
36.344,7.68
36.348,7.68
36.352,7.492
36.356,7.424
36.36,7.62
36.364,7.696
36.368,7.488
36.372,7.392
36.376,7.576
36.38,7.728
36.384,7.528
36.388,7.304
36.392,7.356
36.396,7.596
36.4,7.532
36.404,7.62
36.408,8.132
36.412,8.9
36.416,9.42
36.42,9.672
36.424,9.616
36.428,9.236
36.432,8.656
36.436,7.988
36.44,7.484
36.444,7.436
36.448,7.528
36.452,7.448
36.456,7.46
36.46,7.696
36.464,7.796
36.468,7.592
36.472,7.488
36.476,7.672
36.48,7.8
36.484,7.604
36.488,7.468
36.492,7.588
36.496,7.796
36.5,7.644
36.504,7.468
36.508,7.576
36.512,7.804
36.516,7.696
36.52,7.492
36.524,7.556
36.528,7.772
36.532,7.724
36.536,7.54
36.54,7.556
36.544,7.788
36.548,7.8
36.552,7.604
36.556,7.576
36.56,7.788
36.564,7.864
36.568,7.692
36.572,7.58
36.576,7.772
36.58,7.94
36.584,7.76
36.588,7.604
36.592,7.756
36.596,7.992
36.6,7.84
36.604,7.68
36.608,7.776
36.612,8.028
36.616,7.94
36.62,7.764
36.624,7.864
36.628,8.112
36.632,8.048
36.636,7.892
36.64,7.928
36.644,8.196
36.648,8.232
36.652,8.056
36.656,8.036
36.66,8.264
36.664,8.388
36.668,8.228
36.672,8.128
36.676,8.32
36.68,8.544
36.684,8.38
36.688,8.268
36.692,8.416
36.696,8.652
36.7,8.504
36.704,8.36
36.708,8.444
36.712,8.648
36.716,8.524
36.72,8.296
36.724,8.308
36.728,8.452
36.732,8.34
36.736,8.112
36.74,8.044
36.744,8.172
36.748,8.164
36.752,7.912
36.756,7.82
36.76,7.968
36.764,8.016
36.768,7.788
36.772,7.644
36.776,7.804
36.78,7.936
36.784,7.732
36.788,7.596
36.792,7.744
36.796,7.912
36.8,7.752
36.804,7.576
36.808,7.676
36.812,7.92
36.816,7.8
36.82,7.608
36.824,7.672
36.828,7.904
36.832,7.856
36.836,7.648
36.84,7.668
36.844,7.872
36.848,7.868
36.852,7.7
36.856,7.652
36.86,7.824
36.864,7.896
36.868,7.732
36.872,7.616
36.876,7.788
36.88,7.948
36.884,7.74
36.888,7.592
36.892,7.736
36.896,7.944
36.9,7.78
36.904,7.588
36.908,7.692
36.912,7.904
36.916,7.792
36.92,7.628
36.924,7.672
36.928,7.872
36.932,7.816
36.936,7.624
36.94,7.632
36.944,7.84
36.948,7.844
36.952,7.66
36.956,7.592
36.96,7.768
36.964,7.86
36.968,7.672
36.972,7.56
36.976,7.728
36.98,7.88
36.984,7.692
36.988,7.532
36.992,7.676
36.996,7.872
37,7.744
37.004,7.564
37.008,7.652
37.012,7.852
37.016,7.736
37.02,7.576
37.024,7.62
37.028,7.836
37.032,7.78
37.036,7.576
37.04,7.604
37.044,7.82
37.048,7.836
37.052,7.632
37.056,7.576
37.06,7.756
37.064,7.824
37.068,7.668
37.072,7.54
37.076,7.7
37.08,7.844
37.084,7.684
37.088,7.528
37.092,7.676
37.096,7.9
37.1,7.768
37.104,7.62
37.108,7.744
37.112,7.972
37.116,7.812
37.12,7.656
37.124,7.772
37.128,8.012
37.132,7.972
37.136,7.74
37.14,7.724
37.144,7.896
37.148,7.88
37.152,7.68
37.156,7.628
37.16,7.808
37.164,7.884
37.168,7.68
37.172,7.568
37.176,7.716
37.18,7.844
37.184,7.644
37.188,7.492
37.192,7.616
37.196,7.848
37.2,7.68
37.204,7.5
37.208,7.6
37.212,7.78
37.216,7.736
37.22,7.536
37.224,7.536
37.228,7.648
37.232,7.616
37.236,7.52
37.24,7.72
37.244,8.288
37.248,8.824
37.252,9.264
37.256,9.728
37.26,9.936
37.264,9.484
37.268,8.756
37.272,8.164
37.276,7.804
37.28,7.652
37.284,7.488
37.288,7.456
37.292,7.66
37.296,7.9
37.3,7.816
37.304,7.636
37.308,7.692
37.312,7.912
37.316,7.796
37.32,7.608
37.324,7.66
37.328,7.864
37.332,7.824
37.336,7.636
37.34,7.644
37.344,7.836
37.348,7.872
37.352,7.672
37.356,7.608
37.36,7.812
37.364,7.912
37.368,7.764
37.372,7.64
37.376,7.812
37.38,7.968
37.384,7.808
37.388,7.684
37.392,7.824
37.396,8.012
37.4,7.868
37.404,7.7
37.408,7.8
37.412,8.044
37.416,7.94
37.42,7.768
37.424,7.82
37.428,8.068
37.432,8.044
37.436,7.844
37.44,7.864
37.444,8.056
37.448,8.116
37.452,7.948
37.456,7.928
37.46,8.092
37.464,8.196
37.468,8.08
37.472,7.988
37.476,8.172
37.48,8.356
37.484,8.18
37.488,8.072
37.492,8.252
37.496,8.496
37.5,8.352
37.504,8.208
37.508,8.36
37.512,8.604
37.516,8.544
37.52,8.372
37.524,8.452
37.528,8.68
37.532,8.664
37.536,8.524
37.54,8.536
37.544,8.72
37.548,8.744
37.552,8.536
37.556,8.444
37.56,8.564
37.564,8.608
37.568,8.372
37.572,8.168
37.576,8.292
37.58,8.376
37.584,8.176
37.588,7.952
37.592,8.032
37.596,8.168
37.6,8.004
37.604,7.808
37.608,7.836
37.612,8.032
37.616,7.932
37.62,7.724
37.624,7.756
37.628,7.96
37.632,7.9
37.636,7.74
37.64,7.732
37.644,7.908
37.648,7.94
37.652,7.732
37.656,7.668
37.66,7.852
37.664,7.96
37.668,7.756
37.672,7.648
37.676,7.796
37.68,7.952
37.684,7.812
37.688,7.632
37.692,7.776
37.696,7.968
37.7,7.82
37.704,7.652
37.708,7.744
37.712,7.944
37.716,7.848
37.72,7.664
37.724,7.716
37.728,7.9
37.732,7.88
37.736,7.676
37.74,7.684
37.744,7.852
37.748,7.908
37.752,7.708
37.756,7.632
37.76,7.82
37.764,7.92
37.768,7.74
37.772,7.636
37.776,7.788
37.78,7.94
37.784,7.76
37.788,7.584
37.792,7.72
37.796,7.904
37.8,7.776
37.804,7.596
37.808,7.692
37.812,7.916
37.816,7.816
37.82,7.624
37.824,7.672
37.828,7.876
37.832,7.856
37.836,7.644
37.84,7.62
37.844,7.808
37.848,7.86
37.852,7.696
37.856,7.584
37.86,7.776
37.864,7.876
37.868,7.712
37.872,7.56
37.876,7.748
37.88,7.908
37.884,7.744
37.888,7.556
37.892,7.72
37.896,7.92
37.9,7.796
37.904,7.604
37.908,7.672
37.912,7.872
37.916,7.812
37.92,7.632
37.924,7.664
37.928,7.848
37.932,7.824
37.936,7.652
37.94,7.648
37.944,7.824
37.948,7.864
37.952,7.688
37.956,7.62
37.96,7.804
37.964,7.912
37.968,7.716
37.972,7.572
37.976,7.728
37.98,7.94
37.984,7.788
37.988,7.644
37.992,7.8
37.996,7.996
38,7.864
38.004,7.672
38.008,7.776
38.012,8.028
38.016,7.956
38.02,7.78
38.024,7.8
38.028,7.96
38.032,7.908
38.036,7.7
38.04,7.676
38.044,7.864
38.048,7.908
38.052,7.704
38.056,7.584
38.06,7.78
38.064,7.844
38.068,7.68
38.072,7.512
38.076,7.684
38.08,7.836
38.084,7.696
38.088,7.536
38.092,7.644
38.096,7.832
38.1,7.688
38.104,7.548
38.108,7.624
38.112,7.744
38.116,7.572
38.12,7.472
38.124,7.6
38.128,8.112
38.132,8.556
38.136,8.932
38.14,9.58
38.144,10.056
38.148,9.824
38.152,9.032
38.156,8.46
38.16,8.136
38.164,7.764
38.168,7.468
38.172,7.448
38.176,7.676
38.18,7.924
38.184,7.776
38.188,7.632
38.192,7.756
38.196,7.952
38.2,7.836
38.204,7.636
38.208,7.736
38.212,7.928
38.216,7.852
38.22,7.656
38.224,7.692
38.228,7.896
38.232,7.868
38.236,7.708
38.24,7.696
38.244,7.852
38.248,7.904
38.252,7.728
38.256,7.676
38.26,7.848
38.264,7.988
38.268,7.816
38.272,7.704
38.276,7.872
38.28,8.028
38.284,7.888
38.288,7.72
38.292,7.868
38.296,8.06
38.3,7.94
38.304,7.76
38.308,7.872
38.312,8.052
38.316,8.016
38.32,7.852
38.324,7.924
38.328,8.104
38.332,8.088
38.336,7.928
38.34,7.928
38.344,8.136
38.348,8.204
38.352,8.024
38.356,7.976
38.36,8.184
38.364,8.324
38.368,8.2
38.372,8.084
38.376,8.256
38.38,8.456
38.384,8.32
38.388,8.224
38.392,8.388
38.396,8.572
38.4,8.496
38.404,8.336
38.408,8.472
38.412,8.68
38.416,8.616
38.42,8.452
38.424,8.516
38.428,8.736
38.432,8.724
38.436,8.528
38.44,8.496
38.444,8.636
38.448,8.648
38.452,8.44
38.456,8.264
38.46,8.396
38.464,8.424
38.468,8.208
38.472,8.024
38.476,8.096
38.48,8.212
38.484,8.02
38.488,7.816
38.492,7.916
38.496,8.068
38.5,7.912
38.504,7.74
38.508,7.816
38.512,7.988
38.516,7.916
38.52,7.748
38.524,7.748
38.528,7.94
38.532,7.936
38.536,7.764
38.54,7.72
38.544,7.892
38.548,7.956
38.552,7.772
38.556,7.696
38.56,7.884
38.564,7.976
38.568,7.832
38.572,7.692
38.576,7.836
38.58,7.992
38.584,7.844
38.588,7.684
38.592,7.82
38.596,7.988
38.6,7.892
38.604,7.696
38.608,7.772
38.612,7.964
38.616,7.88
38.62,7.724
38.624,7.732
38.628,7.944
38.632,7.912
38.636,7.712
38.64,7.716
38.644,7.896
38.648,7.9
38.652,7.748
38.656,7.66
38.66,7.836
38.664,7.972
38.668,7.752
38.672,7.648
38.676,7.776
38.68,7.948
38.684,7.792
38.688,7.616
38.692,7.748
38.696,7.936
38.7,7.82
38.704,7.64
38.708,7.748
38.712,7.896
38.716,7.84
38.72,7.644
38.724,7.692
38.728,7.876
38.732,7.868
38.736,7.672
38.74,7.648
38.744,7.804
38.748,7.904
38.752,7.716
38.756,7.624
38.76,7.788
38.764,7.904
38.768,7.76
38.772,7.644
38.776,7.768
38.78,7.936
38.784,7.788
38.788,7.62
38.792,7.76
38.796,7.92
38.8,7.812
38.804,7.628
38.808,7.724
38.812,7.892
38.816,7.74
38.82,7.672
38.824,7.672
38.828,7.884
38.832,7.876
38.836,7.72
38.84,7.68
38.844,7.84
38.848,7.896
38.852,7.74
38.856,7.636
38.86,7.804
38.864,7.924
38.868,7.764
38.872,7.588
38.876,7.772
38.88,7.924
38.884,7.776
38.888,7.62
38.892,7.744
38.896,7.944
38.9,7.804
38.904,7.628
38.908,7.74
38.912,7.948
38.916,7.888
38.92,7.772
38.924,7.816
38.928,7.988
38.932,7.964
38.936,7.796
38.94,7.804
38.944,8.012
38.948,8.068
38.952,7.888
38.956,7.756
38.96,7.908
38.964,8.008
38.968,7.82
38.972,7.692
38.976,7.8
38.98,7.972
38.984,7.808
38.988,7.632
38.992,7.708
38.996,7.888
39,7.768
39.004,7.604
39.008,7.668
39.012,7.828
39.016,7.8
39.02,7.624
39.024,7.676
39.028,7.836
39.032,7.828
39.036,7.632
39.04,7.56
39.044,7.64
39.048,7.744
39.052,7.7
39.056,7.888
39.06,8.504
39.064,9.144
39.068,9.68
39.072,9.908
39.076,9.8
39.08,9.308
39.084,8.672
39.088,8.088
39.092,7.712
39.096,7.684
39.1,7.676
39.104,7.62
39.108,7.764
39.112,7.984
39.116,7.912
39.12,7.76
39.124,7.772
39.128,7.928
39.132,7.908
39.136,7.76
39.14,7.724
39.144,7.9
39.148,7.912
39.152,7.8
