0,8.032
0.004,8.072
0.008,8.248
0.012,8.204
0.016,8.092
0.02,8.112
0.024,8.252
0.028,8.296
0.032,8.176
0.036,8.172
0.04,8.312
0.044,8.36
0.048,8.284
0.052,8.248
0.056,8.392
0.06,8.504
0.064,8.404
0.068,8.364
0.072,8.504
0.076,8.596
0.08,8.548
0.084,8.5
0.088,8.596
0.092,8.74
0.096,8.692
0.1,8.628
0.104,8.688
0.108,8.832
0.112,8.82
0.116,8.74
0.12,8.728
0.124,8.86
0.128,8.872
0.132,8.76
0.136,8.708
0.14,8.84
0.144,8.84
0.148,8.696
0.152,8.628
0.156,8.728
0.16,8.72
0.164,8.568
0.168,8.432
0.172,8.492
0.176,8.528
0.18,8.4
0.184,8.252
0.188,8.272
0.192,8.34
0.196,8.236
0.2,8.1
0.204,8.096
0.208,8.172
0.212,8.12
0.216,8.012
0.22,7.984
0.224,8.1
0.228,8.064
0.232,7.96
0.236,7.928
0.24,8.048
0.244,8.076
0.248,7.948
0.252,7.896
0.256,7.98
0.26,8.052
0.264,7.976
0.268,7.896
0.272,8
0.276,8.076
0.28,7.956
0.284,7.896
0.288,7.964
0.292,8.052
0.296,8.016
0.3,7.908
0.304,7.948
0.308,8.08
0.312,8.036
0.316,7.928
0.32,7.94
0.324,8.028
0.328,8.068
0.332,7.944
0.336,7.932
0.34,8.076
0.344,8.108
0.348,7.992
0.352,7.924
0.356,8.068
0.36,8.1
0.364,8.024
0.368,7.932
0.372,8.032
0.376,8.108
0.38,8.02
0.384,7.924
0.388,7.976
0.392,8.104
0.396,8.032
0.4,7.916
0.404,7.952
0.408,8.08
0.412,8.052
0.416,7.944
0.42,7.944
0.424,8.06
0.428,8.076
0.432,7.948
0.436,7.9
0.44,8.052
0.444,8.052
0.448,7.96
0.452,7.892
0.456,8
0.46,8.056
0.464,7.964
0.468,7.884
0.472,7.948
0.476,8.06
0.48,7.984
0.484,7.884
0.488,7.924
0.492,8.036
0.496,7.984
0.5,7.884
0.504,7.912
0.508,8.068
0.512,8.024
0.516,7.86
0.52,7.856
0.524,8.024
0.528,8.036
0.532,7.896
0.536,7.876
0.54,7.996
0.544,8.056
0.548,7.924
0.552,7.852
0.556,7.976
0.56,8.064
0.564,7.984
0.568,7.892
0.572,7.98
0.576,8.064
0.58,7.976
0.584,7.872
0.588,7.952
0.592,8.076
0.596,7.992
0.6,7.892
0.604,7.908
0.608,8.052
0.612,8.024
0.616,7.904
0.62,7.888
0.624,8.028
0.628,8.02
0.632,7.9
0.636,7.892
0.64,8.008
0.644,8.056
0.648,7.952
0.652,7.872
0.656,7.992
0.66,8.068
0.664,7.932
0.668,7.848
0.672,7.976
0.676,8.06
0.68,7.98
0.684,7.872
0.688,7.944
0.692,8.06
0.696,7.992
0.7,7.896
0.704,7.916
0.708,8.052
0.712,8.004
0.716,7.9
0.72,7.892
0.724,8.012
0.728,8.032
0.732,7.928
0.736,7.884
0.74,8.032
0.744,8.076
0.748,7.944
0.752,7.864
0.756,7.984
0.76,8.072
0.764,7.956
0.768,7.896
0.772,7.968
0.776,8.024
0.78,7.98
0.784,7.896
0.788,7.956
0.792,8.056
0.796,7.976
0.8,7.856
0.804,7.9
0.808,8.048
0.812,8.028
0.816,7.912
0.82,7.88
0.824,8
0.828,8.044
0.832,7.916
0.836,7.892
0.84,8.004
0.844,8.056
0.848,7.952
0.852,7.928
0.856,8.052
0.86,8.148
0.864,8.084
0.868,7.984
0.872,8.092
0.876,8.188
0.88,8.1
0.884,7.996
0.888,8.076
0.892,8.2
0.896,8.14
0.9,8.028
0.904,8.032
0.908,8.144
0.912,8.092
0.916,7.964
0.92,7.98
0.924,8.104
0.928,8.064
0.932,7.916
0.936,7.884
0.94,8
0.944,8
0.948,7.904
0.952,7.808
0.956,7.944
0.96,8.008
0.964,7.9
0.968,7.816
0.972,7.888
0.976,8
0.98,7.916
0.984,7.8
0.988,7.86
0.992,7.984
0.996,7.932
1,7.828
1.004,7.852
1.008,7.896
1.012,7.832
1.016,7.724
1.02,7.892
1.024,8.284
1.028,8.74
1.032,9.3
1.036,9.968
1.04,10.508
1.044,10.412
1.048,9.868
1.052,9.004
1.056,8.552
1.06,8.384
1.064,8.204
1.068,8.056
1.072,8.12
1.076,8.216
1.08,8.124
1.084,7.972
1.088,8.024
1.092,8.112
1.096,8.052
1.1,7.912
1.104,7.944
1.108,8.068
1.112,8.036
1.116,7.944
1.12,7.928
1.124,8.072
1.128,8.092
1.132,7.964
1.136,7.924
1.14,8.048
1.144,8.128
1.148,7.976
1.152,7.924
1.156,8.056
1.16,8.132
1.164,8.036
1.168,7.924
1.172,8.024
1.176,8.12
1.18,8.068
1.184,7.956
1.188,8.04
1.192,8.144
1.196,8.108
1.2,8.016
1.204,8.04
1.208,8.156
1.212,8.148
1.216,8.06
1.22,8.024
1.224,8.164
1.228,8.188
1.232,8.076
1.236,8.032
1.24,8.2
1.244,8.232
1.248,8.128
1.252,8.076
1.256,8.208
1.26,8.336
1.264,8.228
1.268,8.148
1.272,8.252
1.276,8.364
1.28,8.32
1.284,8.244
1.288,8.312
1.292,8.456
1.296,8.452
1.3,8.372
1.304,8.428
1.308,8.58
1.312,8.604
1.316,8.484
1.32,8.532
1.324,8.708
1.328,8.74
1.332,8.648
1.336,8.632
1.34,8.788
1.344,8.852
1.348,8.772
1.352,8.728
1.356,8.856
1.36,8.932
1.364,8.832
1.368,8.76
1.372,8.864
1.376,8.92
1.38,8.844
1.384,8.724
1.388,8.732
1.392,8.836
1.396,8.748
1.4,8.596
1.404,8.56
1.408,8.636
1.412,8.6
1.416,8.42
1.42,8.32
1.424,8.424
1.428,8.4
1.432,8.236
1.436,8.164
1.44,8.244
1.444,8.256
1.448,8.12
1.452,8.02
1.456,8.128
1.46,8.192
1.464,8.068
1.468,7.956
1.472,8.04
1.476,8.14
1.48,8.068
1.484,7.928
1.488,7.988
1.492,8.1
1.496,8.064
1.5,7.952
1.504,7.928
1.508,8.088
1.512,8.04
1.516,7.948
1.52,7.92
1.524,8.072
1.528,8.084
1.532,7.956
1.536,7.904
1.54,8.068
1.544,8.092
1.548,7.992
1.552,7.936
1.556,8.036
1.56,8.124
1.564,8.004
1.568,7.936
1.572,8
1.576,8.112
1.58,8.016
1.584,7.952
1.588,8.012
1.592,8.132
1.596,8.068
1.6,7.964
1.604,7.992
1.608,8.132
1.612,8.112
1.616,7.952
1.62,7.932
1.624,8.084
1.628,8.124
1.632,7.992
1.636,7.948
1.64,8.072
1.644,8.108
1.648,8.048
1.652,7.96
1.656,8.036
1.66,8.1
1.664,8
1.668,7.92
1.672,8.024
1.676,8.116
1.68,8.028
1.684,7.928
1.688,7.956
1.692,8.084
1.696,8.052
1.7,7.944
1.704,7.94
1.708,8.092
1.712,8.056
1.716,7.964
1.72,7.92
1.724,8.048
1.728,8.072
1.732,7.956
1.736,7.928
1.74,8.044
1.744,8.056
1.748,7.96
1.752,7.872
1.756,8.004
1.76,8.1
1.764,7.968
1.768,7.872
1.772,7.968
1.776,8.068
1.78,8
1.784,7.912
1.788,7.948
1.792,8.06
1.796,8.028
1.8,7.896
1.804,7.928
1.808,8.056
1.812,8.06
1.816,7.924
1.82,7.924
1.824,8.048
1.828,8.084
1.832,7.96
1.836,7.908
1.84,8.032
1.844,8.076
1.848,7.972
1.852,7.892
1.856,7.992
1.86,8.08
1.864,7.976
1.868,7.868
1.872,7.992
1.876,8.076
1.88,7.992
1.884,7.896
1.888,7.96
1.892,8.072
1.896,8.04
1.9,7.92
1.904,7.924
1.908,8.076
1.912,8.068
1.916,7.924
1.92,7.904
1.924,8.04
1.928,8.052
1.932,7.964
1.936,7.904
1.94,8.032
1.944,8.076
1.948,7.972
1.952,7.908
1.956,8.012
1.96,8.068
1.964,7.984
1.968,7.88
1.972,7.992
1.976,8.088
1.98,7.992
1.984,7.888
1.988,7.94
1.992,8.076
1.996,8.04
2,7.916
2.004,7.912
2.008,8.036
2.012,8.044
2.016,7.932
2.02,7.896
2.024,8.024
2.028,8.048
2.032,7.928
2.036,7.896
2.04,8.02
2.044,8.084
2.048,7.948
2.052,7.872
2.056,8
2.06,8.1
2.064,8
2.068,7.9
2.072,7.976
2.076,8.072
2.08,8.024
2.084,7.936
2.088,7.988
2.092,8.096
2.096,8.052
2.1,7.984
2.104,8.04
2.108,8.184
2.112,8.156
2.116,8.048
2.12,8.044
2.124,8.192
2.128,8.208
2.132,8.088
2.136,8.048
2.14,8.184
2.144,8.228
2.148,8.104
2.152,8.032
2.156,8.088
2.16,8.148
2.164,8.04
2.168,7.96
2.172,8.02
2.176,8.076
2.18,8.004
2.184,7.888
2.188,7.916
2.192,8.052
2.196,7.96
2.2,7.84
2.204,7.86
2.208,7.996
2.212,7.964
2.216,7.86
2.22,7.812
2.224,7.948
2.228,7.984
2.232,7.888
2.236,7.832
2.24,7.952
2.244,8.012
2.248,7.908
2.252,7.788
2.256,7.836
2.26,7.884
2.264,7.888
2.268,8.032
2.272,8.432
2.276,9.06
2.28,9.688
2.284,10.168
2.288,10.368
2.292,10.204
2.296,9.504
2.3,8.76
2.304,8.312
2.308,8.324
2.312,8.256
2.316,8.092
2.32,8.048
2.324,8.208
2.328,8.192
2.332,8.024
2.336,7.944
2.34,8.068
2.344,8.112
2.348,7.976
2.352,7.924
2.356,8.02
2.36,8.124
2.364,8.028
2.368,7.932
2.372,8.016
2.376,8.108
2.38,8.032
2.384,7.94
2.388,7.996
2.392,8.104
2.396,8.092
2.4,7.964
2.404,8
2.408,8.132
2.412,8.132
2.416,7.996
2.42,7.96
2.424,8.116
2.428,8.14
2.432,8.04
2.436,7.98
2.44,8.12
2.444,8.164
2.448,8.112
2.452,8.024
2.456,8.128
2.46,8.188
2.464,8.116
2.468,8.04
2.472,8.16
2.476,8.228
2.48,8.192
2.484,8.1
2.488,8.14
2.492,8.272
2.496,8.264
2.5,8.152
2.504,8.176
2.508,8.344
2.512,8.328
2.516,8.236
2.52,8.208
2.524,8.388
2.528,8.384
2.532,8.304
2.536,8.3
2.54,8.46
2.544,8.544
2.548,8.448
2.552,8.392
2.556,8.544
2.56,8.684
2.564,8.612
2.568,8.552
2.572,8.64
2.576,8.8
2.58,8.756
2.584,8.672
2.588,8.732
2.592,8.864
2.596,8.872
2.6,8.768
2.604,8.792
2.608,8.904
2.612,8.916
2.616,8.816
2.62,8.772
2.624,8.904
2.628,8.892
2.632,8.748
2.636,8.68
2.64,8.784
2.644,8.78
2.648,8.644
2.652,8.512
2.656,8.556
2.66,8.612
2.664,8.492
2.668,8.328
2.672,8.36
2.676,8.416
2.68,8.328
2.684,8.172
2.688,8.184
2.692,8.252
2.696,8.204
2.7,8.06
2.704,8.048
2.708,8.176
2.712,8.176
2.716,8.004
2.72,7.94
2.724,8.068
2.728,8.088
2.732,8.012
2.736,7.928
2.74,8.02
2.744,8.096
2.748,7.996
2.752,7.928
2.756,8.028
2.76,8.1
2.764,8.004
2.768,7.92
2.772,8.016
2.776,8.108
2.78,8.016
2.784,7.9
2.788,7.956
2.792,8.1
2.796,8.096
2.8,7.964
2.804,7.948
2.808,8.1
2.812,8.1
2.816,7.996
2.82,7.964
2.824,8.088
2.828,8.136
2.832,7.996
2.836,7.968
2.84,8.076
2.844,8.152
2.848,8.04
2.852,7.98
2.856,8.08
2.86,8.14
2.864,8.056
2.868,7.996
2.872,8.032
2.876,8.148
2.88,8.108
2.884,7.956
2.888,8.016
2.892,8.12
2.896,8.084
2.9,7.996
2.904,7.988
2.908,8.108
2.912,8.104
2.916,7.928
2.92,7.948
2.924,8.092
2.928,8.128
2.932,7.992
2.936,7.936
2.94,8.052
2.944,8.132
2.948,8.028
2.952,7.904
2.956,8.024
2.96,8.108
2.964,8.02
2.968,7.916
2.972,7.992
2.976,8.084
2.98,8.036
2.984,7.908
2.988,7.952
2.992,8.104
2.996,8.064
3,7.948
3.004,7.924
3.008,8.084
3.012,8.084
3.016,7.952
3.02,7.924
3.024,8.06
3.028,8.064
3.032,7.96
3.036,7.916
3.04,8.052
3.044,8.08
3.048,7.984
3.052,7.9
3.056,8.028
3.06,8.064
3.064,7.992
3.068,7.924
3.072,7.992
3.076,8.092
3.08,8.044
3.084,7.912
3.088,7.968
3.092,8.1
3.096,8.044
3.1,7.952
3.104,7.916
3.108,8.072
3.112,8.08
3.116,7.952
3.12,7.944
3.124,8.076
3.128,8.096
3.132,7.956
3.136,7.908
3.14,8.064
3.144,8.124
3.148,7.988
3.152,7.928
3.156,8.028
3.16,8.124
3.164,8.036
3.168,7.92
3.172,7.996
3.176,8.124
3.18,8.084
3.184,7.964
3.188,7.98
3.192,8.08
3.196,8.064
3.2,7.956
3.204,7.952
3.208,8.088
3.212,8.072
3.216,7.976
3.22,7.94
3.224,8.068
3.228,8.116
3.232,7.992
3.236,7.924
3.24,8.068
3.244,8.14
3.248,8.052
3.252,7.94
3.256,8.044
3.26,8.132
3.264,8.036
3.268,7.968
3.272,8.04
3.276,8.168
3.28,8.096
3.284,7.98
3.288,8.012
3.292,8.14
3.296,8.132
3.3,8.012
3.304,7.992
3.308,8.136
3.312,8.16
3.316,8.036
3.32,7.988
3.324,8.132
3.328,8.172
3.332,8.132
3.336,8.072
3.34,8.212
3.344,8.264
3.348,8.164
3.352,8.088
3.356,8.204
3.36,8.288
3.364,8.176
3.368,8.088
3.372,8.176
3.376,8.3
3.38,8.216
3.384,8.084
3.388,8.104
3.392,8.188
3.396,8.18
3.4,8.024
3.404,8.008
3.408,8.096
3.412,8.088
3.416,7.972
3.42,7.936
3.424,8.044
3.428,8.068
3.432,7.956
3.436,7.876
3.44,7.996
3.444,8.068
3.448,7.976
3.452,7.884
3.456,7.972
3.46,8.076
3.464,8.02
3.468,7.908
3.472,7.952
3.476,8.076
3.48,8.032
3.484,7.876
3.488,7.844
3.492,7.944
3.496,8.044
3.5,8.176
3.504,8.564
3.508,9.308
3.512,10.032
3.516,10.464
3.52,10.452
3.524,10.256
3.528,9.512
3.532,8.796
3.536,8.38
3.54,8.396
3.544,8.38
3.548,8.196
3.552,8.112
3.556,8.236
3.56,8.264
3.564,8.128
3.568,7.996
3.572,8.072
3.576,8.2
3.58,8.112
3.584,7.984
3.588,8.036
3.592,8.184
3.596,8.144
3.6,7.984
3.604,7.992
3.608,8.18
3.612,8.164
3.616,8.036
3.62,8.008
3.624,8.128
3.628,8.16
3.632,8.092
3.636,8.044
3.64,8.152
3.644,8.2
3.648,8.088
3.652,8.024
3.656,8.112
3.66,8.232
3.664,8.168
3.668,8.064
3.672,8.128
3.676,8.224
3.68,8.184
3.684,8.072
3.688,8.1
3.692,8.228
3.696,8.22
3.7,8.112
3.704,8.132
3.708,8.244
3.712,8.252
3.716,8.136
3.72,8.14
3.724,8.292
3.728,8.32
3.732,8.232
3.736,8.168
3.74,8.312
3.744,8.4
3.748,8.28
3.752,8.224
3.756,8.352
3.76,8.436
3.764,8.396
3.768,8.324
3.772,8.428
3.776,8.508
3.78,8.5
3.784,8.432
3.788,8.504
3.792,8.668
3.796,8.704
3.8,8.604
3.804,8.6
3.808,8.756
3.812,8.788
3.816,8.696
3.82,8.688
3.824,8.852
3.828,8.916
3.832,8.772
3.836,8.732
3.84,8.852
3.844,8.92
3.848,8.844
3.852,8.764
3.856,8.816
3.86,8.904
3.864,8.812
3.868,8.7
3.872,8.756
3.876,8.792
3.88,8.676
3.884,8.548
3.888,8.52
3.892,8.584
3.896,8.484
3.9,8.316
3.904,8.268
3.908,8.364
3.912,8.328
3.916,8.2
3.92,8.096
3.924,8.192
3.928,8.24
3.932,8.104
3.936,8.028
3.94,8.14
3.944,8.144
3.948,8.072
3.952,8.004
3.956,8.06
3.96,8.132
3.964,8.04
3.968,7.904
3.972,7.972
3.976,8.096
3.98,8.032
3.984,7.968
3.988,7.968
3.992,8.112
3.996,8.1
4,7.992
4.004,7.996
4.008,8.092
4.012,8.112
4.016,8.012
4.02,7.992
4.024,8.172
4.028,8.216
4.032,8.1
4.036,8.012
4.04,8.132
4.044,8.204
4.048,8.084
4.052,7.992
4.056,8.116
4.06,8.184
4.064,8.152
4.068,8.08
4.072,8.14
4.076,8.204
4.08,8.184
4.084,8.068
4.088,8.116
4.092,8.204
4.096,8.152
4.1,8.068
4.104,8.06
4.108,8.184
4.112,8.212
4.116,8.084
4.12,8.008
4.124,8.16
4.128,8.196
4.132,8.076
4.136,8
4.14,8.052
4.144,8.148
4.148,8.024
4.152,7.96
4.156,8.056
4.16,8.168
4.164,8.1
4.168,7.996
4.172,8.032
4.176,8.152
4.18,8.116
4.184,7.968
4.188,8.032
4.192,8.124
4.196,8.112
4.2,7.992
4.204,7.928
4.208,8.092
4.212,8.108
4.216,7.996
4.22,7.94
4.224,8.056
4.228,8.096
4.232,7.972
4.236,7.924
4.24,8.028
4.244,8.108
4.248,8
4.252,7.892
4.256,8.028
4.26,8.092
4.264,8.024
4.268,7.916
4.272,7.956
4.276,8.072
4.28,8.04
4.284,7.92
4.288,7.944
4.292,8.08
4.296,8.048
4.3,7.936
4.304,7.904
4.308,8.064
4.312,8.056
4.316,7.952
4.32,7.904
4.324,8.068
4.328,8.096
4.332,7.976
4.336,7.884
4.34,8.024
4.344,8.088
4.348,8.008
4.352,7.932
4.356,7.996
4.36,8.112
4.364,8.072
4.368,7.976
4.372,8.004
4.376,8.124
4.38,8.076
4.384,7.972
4.388,7.996
4.392,8.12
4.396,8.112
4.4,7.992
4.404,8.008
4.408,8.12
4.412,8.144
4.416,8.052
4.42,7.984
4.424,8.084
4.428,8.132
4.432,8.024
4.436,7.964
4.44,8.096
4.444,8.112
4.448,8.024
4.452,7.972
4.456,8.076
4.46,8.156
4.464,8.072
4.468,7.944
4.472,8.024
4.476,8.14
4.48,8.088
4.484,7.956
4.488,7.996
4.492,8.104
4.496,8.12
4.5,7.988
4.504,7.98
4.508,8.104
4.512,8.128
4.516,8.028
4.52,7.94
4.524,8.084
4.528,8.108
4.532,8.024
4.536,7.964
4.54,8.056
4.544,8.156
4.548,8.068
4.552,7.992
4.556,8.064
4.56,8.124
4.564,8.052
4.568,7.992
4.572,8.064
4.576,8.2
4.58,8.164
4.584,8.104
4.588,8.132
4.592,8.26
4.596,8.228
4.6,8.116
4.604,8.104
4.608,8.26
4.612,8.256
4.616,8.156
4.62,8.084
4.624,8.212
4.628,8.224
4.632,8.084
4.636,7.972
4.64,8.112
4.644,8.156
4.648,8.04
4.652,7.928
4.656,7.976
4.66,8.064
4.664,8
4.668,7.888
4.672,7.916
4.676,8.028
4.68,7.992
4.684,7.892
4.688,7.9
4.692,8.012
4.696,8.008
4.7,7.876
4.704,7.888
4.708,8.008
4.712,8.024
4.716,7.92
4.72,7.9
4.724,8.004
4.728,7.992
4.732,7.848
4.736,7.76
4.74,7.992
4.744,8.3
4.748,8.564
4.752,9.1
4.756,9.928
4.76,10.512
4.764,10.416
4.768,9.968
4.772,9.292
4.776,8.768
4.78,8.436
4.784,8.236
4.788,8.188
4.792,8.272
4.796,8.292
4.8,8.136
4.804,8.06
4.808,8.172
4.812,8.16
4.816,8.036
4.82,7.984
4.824,8.1
4.828,8.136
4.832,8.028
4.836,7.952
4.84,8.064
4.844,8.148
4.848,8.056
4.852,7.984
4.856,8.04
4.86,8.156
4.864,8.112
4.868,8.016
4.872,8.056
4.876,8.196
4.88,8.156
4.884,8.016
4.888,8.024
4.892,8.176
4.896,8.172
4.9,8.028
4.904,8.028
4.908,8.176
4.912,8.22
4.916,8.088
4.92,8.044
4.924,8.192
4.928,8.24
4.932,8.152
4.936,8.096
4.94,8.188
4.944,8.296
4.948,8.184
4.952,8.128
4.956,8.224
4.96,8.34
4.964,8.272
4.968,8.148
4.972,8.2
4.976,8.332
4.98,8.336
4.984,8.232
4.988,8.26
4.992,8.396
4.996,8.42
5,8.344
5.004,8.304
5.008,8.456
5.012,8.532
5.016,8.44
5.02,8.44
5.024,8.576
5.028,8.672
5.032,8.58
5.036,8.556
5.04,8.708
5.044,8.796
5.048,8.728
5.052,8.66
5.056,8.796
5.06,8.916
5.064,8.876
5.068,8.784
5.072,8.848
5.076,8.976
5.08,8.968
5.084,8.868
5.088,8.888
5.092,8.988
5.096,8.988
5.1,8.868
5.104,8.828
5.108,8.924
5.112,8.904
5.116,8.764
5.12,8.668
5.124,8.748
5.128,8.756
5.132,8.6
5.136,8.5
5.14,8.548
5.144,8.56
5.148,8.424
5.152,8.308
5.156,8.352
5.16,8.396
5.164,8.328
5.168,8.204
5.172,8.22
5.176,8.276
5.18,8.232
5.184,8.1
5.188,8.124
5.192,8.252
5.196,8.204
5.2,8.044
5.204,8.04
5.208,8.192
5.212,8.228
5.216,8.072
5.22,8.016
5.224,8.112
5.228,8.18
5.232,8.088
5.236,8.032
5.24,8.14
5.244,8.204
5.248,8.104
5.252,8.008
5.256,8.1
5.26,8.204
5.264,8.124
5.268,8.024
5.272,8.088
5.276,8.172
5.28,8.148
5.284,8.012
5.288,8.036
5.292,8.176
5.296,8.196
5.3,8.06
5.304,8.072
5.308,8.184
5.312,8.2
5.316,8.108
5.32,8.056
5.324,8.144
5.328,8.196
5.332,8.108
5.336,8.028
5.34,8.136
5.344,8.22
5.348,8.136
5.352,8.048
5.356,8.124
5.36,8.216
5.364,8.144
5.368,8.028
5.372,8.032
5.376,8.184
5.38,8.148
5.384,8.016
5.388,8.032
5.392,8.14
5.396,8.128
5.4,8.012
5.404,8.012
5.408,8.148
5.412,8.148
5.416,8.036
5.42,7.984
5.424,8.092
5.428,8.148
5.432,8.06
5.436,7.988
5.44,8.068
5.444,8.128
5.448,8.048
5.452,7.996
5.456,8.044
5.46,8.128
5.464,8.084
5.468,7.956
5.472,8.016
5.476,8.112
5.48,8.1
5.484,7.984
5.488,7.988
5.492,8.104
5.496,8.128
5.5,8
5.504,7.988
5.508,8.12
5.512,8.124
5.516,7.996
5.52,7.952
5.524,8.088
5.528,8.136
5.532,8.004
5.536,7.948
5.54,8.08
5.544,8.136
5.548,8.044
5.552,7.948
5.556,8.024
5.56,8.14
5.564,8.096
5.568,7.972
5.572,8
5.576,8.124
5.58,8.112
5.584,8.028
5.588,8.004
5.592,8.116
5.596,8.104
5.6,8
5.604,7.988
5.608,8.096
5.612,8.116
5.616,8.008
5.62,7.976
5.624,8.088
5.628,8.144
5.632,8.036
5.636,7.964
5.64,8.092
5.644,8.16
5.648,8.036
5.652,7.936
5.656,8.004
5.66,8.124
5.664,8.08
5.668,7.976
5.672,7.996
5.676,8.136
5.68,8.096
5.684,7.972
5.688,7.996
5.692,8.112
5.696,8.112
5.7,7.964
5.704,7.964
5.708,8.108
5.712,8.144
5.716,8.012
5.72,7.964
5.724,8.064
5.728,8.128
5.732,8.04
5.736,7.948
5.74,8.036
5.744,8.148
5.748,8.056
5.752,7.956
5.756,8.028
5.76,8.144
5.764,8.08
5.768,7.996
5.772,8.016
5.776,8.128
5.78,8.108
5.784,7.976
5.788,7.988
5.792,8.116
5.796,8.124
5.8,8.004
5.804,8.052
5.808,8.204
5.812,8.248
5.816,8.152
5.82,8.068
5.824,8.216
5.828,8.236
5.832,8.148
5.836,8.088
5.84,8.192
5.844,8.284
5.848,8.18
5.852,8.076
5.856,8.124
5.86,8.204
5.864,8.132
5.868,8.02
5.872,8.02
5.876,8.148
5.88,8.072
5.884,7.96
5.888,7.96
5.892,8.076
5.896,8.032
5.9,7.924
5.904,7.892
5.908,8.02
5.912,8.052
5.916,7.936
5.92,7.876
5.924,8
5.928,8.048
5.932,7.956
5.936,7.88
5.94,7.976
5.944,8.06
5.948,7.988
5.952,7.892
5.956,7.868
5.96,7.904
5.964,7.864
5.968,7.888
5.972,8.22
5.976,8.728
5.98,9.296
5.984,9.924
5.988,10.472
5.992,10.596
5.996,10.208
6,9.264
6.004,8.644
6.008,8.46
6.012,8.412
6.016,8.188
6.02,8.076
6.024,8.208
6.028,8.276
6.032,8.124
6.036,7.996
6.04,8.084
6.044,8.168
6.048,8.08
6.052,7.988
6.056,8.036
6.06,8.12
6.064,8.084
6.068,7.96
6.072,8.016
6.076,8.124
6.08,8.148
6.084,8.036
6.088,8.012
6.092,8.148
6.096,8.148
6.1,8.052
6.104,8
6.108,8.152
6.112,8.184
6.116,8.064
6.12,7.992
6.124,8.124
6.128,8.16
6.132,8.104
6.136,8.052
6.14,8.136
6.144,8.232
6.148,8.16
6.152,8.056
6.156,8.14
6.16,8.252
6.164,8.228
6.168,8.112
6.172,8.124
6.176,8.268
6.18,8.252
6.184,8.168
6.188,8.172
6.192,8.296
6.196,8.3
6.2,8.2
6.204,8.2
6.208,8.32
6.212,8.376
6.216,8.268
6.22,8.216
6.224,8.388
6.228,8.436
6.232,8.356
6.236,8.304
6.24,8.404
6.244,8.552
6.248,8.528
6.252,8.436
6.256,8.528
6.26,8.672
6.264,8.672
6.268,8.584
6.272,8.64
6.276,8.808
6.28,8.804
6.284,8.704
6.288,8.732
6.292,8.904
6.296,8.924
6.3,8.824
6.304,8.8
6.308,8.948
6.312,8.996
6.316,8.88
6.32,8.828
6.324,8.944
6.328,8.98
6.332,8.852
6.336,8.772
6.34,8.828
6.344,8.84
6.348,8.744
6.352,8.616
6.356,8.628
6.36,8.684
6.364,8.576
6.368,8.4
6.372,8.38
6.376,8.48
6.38,8.452
6.384,8.28
6.388,8.22
6.392,8.344
6.396,8.312
6.4,8.168
6.404,8.1
6.408,8.196
6.412,8.22
6.416,8.108
6.42,8.052
6.424,8.152
6.428,8.184
6.432,8.08
6.436,7.996
6.44,8.108
6.444,8.208
6.448,8.08
6.452,8.008
6.456,8.056
6.46,8.176
6.464,8.128
6.468,8
6.472,8.036
6.476,8.172
6.48,8.148
6.484,8.048
6.488,8.016
6.492,8.164
6.496,8.18
6.5,8.056
6.504,8.024
6.508,8.168
6.512,8.204
6.516,8.068
6.52,8.028
6.524,8.172
6.528,8.232
6.532,8.152
6.536,8.052
6.54,8.144
6.544,8.236
6.548,8.164
6.552,8.064
6.556,8.124
6.56,8.212
6.564,8.168
6.568,8.068
6.572,8.084
6.576,8.204
6.58,8.188
6.584,8.048
6.588,8.036
6.592,8.168
6.596,8.18
6.6,8.052
6.604,8
6.608,8.14
6.612,8.168
6.616,8.044
6.62,7.992
6.624,8.104
6.628,8.184
6.632,8.084
6.636,8.008
6.64,8.068
6.644,8.128
6.648,8.072
6.652,7.996
6.656,8.024
6.66,8.164
6.664,8.084
6.668,7.996
6.672,8
6.676,8.124
6.68,8.088
6.684,8.016
6.688,7.996
6.692,8.1
6.696,8.132
6.7,8.008
6.704,7.976
6.708,8.116
6.712,8.144
6.716,8.004
6.72,7.964
6.724,8.072
6.728,8.12
6.732,8.048
6.736,7.968
6.74,8.064
6.744,8.168
6.748,8.068
6.752,7.956
6.756,8.024
6.76,8.128
6.764,8.1
6.768,7.988
6.772,8.012
6.776,8.14
6.78,8.096
6.784,7.988
6.788,8
6.792,8.112
6.796,8.112
6.8,8.004
6.804,7.96
6.808,8.108
6.812,8.144
6.816,8.016
6.82,7.968
6.824,8.06
6.828,8.14
6.832,8.064
6.836,7.98
6.84,8.056
6.844,8.14
6.848,8.064
6.852,7.96
6.856,8.02
6.86,8.12
6.864,8.064
6.868,7.968
6.872,8
6.876,8.12
6.88,8.08
6.884,7.968
6.888,7.972
6.892,8.084
6.896,8.132
6.9,8.008
6.904,7.948
6.908,8.072
6.912,8.12
6.916,8.024
6.92,7.948
6.924,8.068
6.928,8.14
6.932,8.024
6.936,7.968
6.94,8.052
6.944,8.124
6.948,8.052
6.952,7.976
6.956,8.024
6.96,8.144
6.964,8.08
6.968,7.968
6.972,7.996
6.976,8.124
6.98,8.128
6.984,8.008
6.988,7.988
6.992,8.12
6.996,8.144
7,8.032
7.004,7.988
7.008,8.116
7.012,8.156
7.016,8.044
7.02,7.988
7.024,8.104
7.028,8.176
7.032,8.052
7.036,7.976
7.04,8.064
7.044,8.144
7.048,8.132
7.052,8.02
7.056,8.128
7.06,8.284
7.064,8.256
7.068,8.128
7.072,8.144
7.076,8.3
7.08,8.272
7.084,8.152
7.088,8.144
7.092,8.296
7.096,8.292
7.1,8.168
7.104,8.1
7.108,8.216
7.112,8.2
7.116,8.108
7.12,8.028
7.124,8.1
7.128,8.164
7.132,8.056
7.136,7.952
7.14,8.024
7.144,8.104
7.148,8.024
7.152,7.92
7.156,7.964
7.16,8.072
7.164,8.032
7.168,7.916
7.172,7.924
7.176,8.06
7.18,8.044
7.184,7.904
7.188,7.928
7.192,8.052
7.196,8.052
7.2,7.968
7.204,7.908
7.208,7.972
7.212,7.992
7.216,7.888
7.22,8.008
7.224,8.352
7.228,8.884
7.232,9.456
7.236,10.036
7.24,10.492
7.244,10.404
7.248,9.872
7.252,9
7.256,8.488
7.26,8.404
7.264,8.312
7.268,8.144
7.272,8.144
7.276,8.292
7.28,8.268
7.284,8.1
7.288,8.032
7.292,8.164
7.296,8.184
7.3,8.06
7.304,8.032
7.308,8.136
7.312,8.184
7.316,8.076
7.32,8
7.324,8.104
7.328,8.192
7.332,8.112
7.336,8.036
7.34,8.12
7.344,8.228
7.348,8.148
7.352,8.056
7.356,8.108
7.36,8.204
7.364,8.196
7.368,8.084
7.372,8.104
7.376,8.236
7.38,8.208
7.384,8.084
7.388,8.084
7.392,8.24
7.396,8.264
7.4,8.152
7.404,8.108
7.408,8.22
7.412,8.3
7.416,8.204
7.42,8.116
7.424,8.244
7.428,8.328
7.432,8.232
7.436,8.184
7.44,8.26
7.444,8.352
7.448,8.292
7.452,8.196
7.456,8.284
7.46,8.392
7.464,8.34
7.468,8.268
7.472,8.3
7.476,8.476
7.48,8.488
7.484,8.368
7.488,8.372
7.492,8.548
7.496,8.564
7.5,8.5
7.504,8.46
7.508,8.64
7.512,8.72
7.516,8.64
7.52,8.62
7.524,8.748
7.528,8.852
7.532,8.788
7.536,8.724
7.54,8.828
7.544,8.968
7.548,8.884
7.552,8.808
7.556,8.872
7.56,8.992
7.564,8.98
7.568,8.868
7.572,8.852
7.576,8.992
7.58,8.952
7.584,8.848
7.588,8.816
7.592,8.888
7.596,8.86
7.6,8.692
7.604,8.628
7.608,8.708
7.612,8.708
7.616,8.556
7.62,8.452
7.624,8.536
7.628,8.552
7.632,8.436
7.636,8.288
7.64,8.336
7.644,8.396
7.648,8.332
7.652,8.184
7.656,8.216
7.66,8.312
7.664,8.256
7.668,8.14
7.672,8.132
7.676,8.244
7.68,8.228
7.684,8.104
7.688,8.08
7.692,8.224
7.696,8.212
7.7,8.084
7.704,8.032
7.708,8.14
7.712,8.212
7.716,8.104
7.72,8.024
7.724,8.104
7.728,8.212
7.732,8.112
7.736,8.032
7.74,8.104
7.744,8.224
7.748,8.12
7.752,8.032
7.756,8.092
7.76,8.232
7.764,8.192
7.768,8.08
7.772,8.088
7.776,8.216
7.78,8.24
7.784,8.12
7.788,8.068
7.792,8.208
7.796,8.244
7.8,8.128
7.804,8.104
7.808,8.212
7.812,8.24
7.816,8.148
7.82,8.072
7.824,8.188
7.828,8.268
7.832,8.172
7.836,8.072
7.84,8.124
7.844,8.256
7.848,8.184
7.852,8.052
7.856,8.092
7.86,8.196
7.864,8.192
7.868,8.072
7.872,8.068
7.876,8.164
7.88,8.176
7.884,8.056
7.888,8.04
7.892,8.152
7.896,8.192
7.9,8.072
7.904,8.004
7.908,8.144
7.912,8.188
7.916,8.096
7.92,7.996
7.924,8.084
7.928,8.172
7.932,8.084
7.936,8
7.94,8.064
7.944,8.172
7.948,8.088
7.952,8.012
7.956,8.032
7.96,8.168
7.964,8.1
7.968,7.98
7.972,7.972
7.976,8.144
7.98,8.132
7.984,8
7.988,7.96
7.992,8.112
7.996,8.16
8,8.036
8.004,7.96
8.008,8.068
8.012,8.14
8.016,8.04
8.02,7.948
8.024,8.052
8.028,8.128
8.032,8.056
8.036,7.976
8.04,8.04
8.044,8.096
8.048,8.088
8.052,7.976
8.056,8.008
8.06,8.124
8.064,8.072
8.068,7.968
8.072,7.984
8.076,8.128
8.08,8.128
8.084,7.992
8.088,7.988
8.092,8.096
8.096,8.136
8.1,8.028
8.104,7.98
8.108,8.092
8.112,8.128
8.116,8.028
8.12,7.956
8.124,8.068
8.128,8.144
8.132,8.048
8.136,7.96
8.14,8.036
8.144,8.128
8.148,8.076
8.152,7.984
8.156,8.008
8.16,8.12
8.164,8.104
8.168,7.976
8.172,8.004
8.176,8.132
8.18,8.124
8.184,8
8.188,7.968
8.192,8.104
8.196,8.12
8.2,8.02
8.204,7.972
8.208,8.08
8.212,8.148
8.216,8.048
8.22,7.972
8.224,8.088
8.228,8.144
8.232,8.068
8.236,7.98
8.24,8.04
8.244,8.176
8.248,8.112
8.252,8.016
8.256,8.032
8.26,8.16
8.264,8.124
8.268,8.012
8.272,8.02
8.276,8.152
8.28,8.14
8.284,8.004
8.288,8.004
8.292,8.2
8.296,8.256
8.3,8.132
8.304,8.068
8.308,8.204
8.312,8.292
8.316,8.192
8.32,8.144
8.324,8.252
8.328,8.348
8.332,8.26
8.336,8.16
8.34,8.208
8.344,8.284
8.348,8.176
8.352,8.052
8.356,8.096
8.36,8.208
8.364,8.176
8.368,8.008
8.372,7.992
8.376,8.076
8.38,8.092
8.384,7.996
8.388,7.94
8.392,8.084
8.396,8.072
8.4,7.956
8.404,7.916
8.408,8.04
8.412,8.076
8.416,7.98
8.42,7.908
8.424,8.024
8.428,8.088
8.432,8.012
8.436,7.924
8.44,8.008
8.444,8.052
8.448,7.924
8.452,7.76
8.456,7.904
8.46,8.256
8.464,8.552
8.468,8.972
8.472,9.68
8.476,10.42
8.48,10.636
8.484,10.304
8.488,9.636
8.492,9.108
8.496,8.692
8.5,8.396
8.504,8.224
8.508,8.272
8.512,8.328
8.516,8.232
8.52,8.136
8.524,8.184
8.528,8.204
8.532,8.132
8.536,8.052
8.54,8.1
8.544,8.168
8.548,8.124
8.552,8.032
8.556,8.1
8.56,8.196
8.564,8.196
8.568,8.076
8.572,8.052
8.576,8.208
8.58,8.236
8.584,8.064
8.588,8.048
8.592,8.18
8.596,8.26
8.6,8.152
8.604,8.08
8.608,8.212
8.612,8.252
8.616,8.148
8.62,8.084
8.624,8.184
8.628,8.292
8.632,8.216
8.636,8.12
8.64,8.2
8.644,8.264
8.648,8.248
8.652,8.136
8.656,8.192
8.66,8.328
8.664,8.3
8.668,8.176
8.672,8.16
8.676,8.304
8.68,8.328
8.684,8.224
8.688,8.204
8.692,8.364
8.696,8.372
8.7,8.268
8.704,8.24
8.708,8.412
8.712,8.456
8.716,8.348
8.72,8.304
8.724,8.436
8.728,8.556
8.732,8.496
8.736,8.424
8.74,8.496
8.744,8.656
8.748,8.636
8.752,8.564
8.756,8.628
8.76,8.792
8.764,8.796
8.768,8.704
8.772,8.744
8.776,8.908
8.78,8.924
8.784,8.84
8.788,8.8
8.792,8.976
8.796,9.052
8.8,8.928
8.804,8.876
8.808,8.976
8.812,9.06
8.816,8.928
8.82,8.844
8.824,8.916
8.828,8.964
8.832,8.856
8.836,8.712
8.84,8.752
8.844,8.8
8.848,8.696
8.852,8.548
8.856,8.544
8.86,8.588
8.864,8.484
8.868,8.344
8.872,8.3
8.876,8.408
8.88,8.38
8.884,8.236
8.888,8.156
8.892,8.268
8.896,8.288
8.9,8.164
8.904,8.088
8.908,8.184
8.912,8.244
8.916,8.1
8.92,8.02
8.924,8.128
8.928,8.184
8.932,8.092
8.936,8.02
8.94,8.076
8.944,8.192
8.948,8.152
8.952,8.024
8.956,8.06
8.96,8.16
8.964,8.132
8.968,8.024
8.972,8.008
8.976,8.164
8.98,8.18
8.984,8.048
8.988,8.032
8.992,8.164
8.996,8.188
9,8.088
9.004,8.02
9.008,8.156
9.012,8.212
9.016,8.12
9.02,8.056
9.024,8.116
9.028,8.192
9.032,8.144
9.036,8.036
9.04,8.108
9.044,8.22
9.048,8.164
9.052,8.032
9.056,8.064
9.06,8.204
9.064,8.18
9.068,8.048
9.072,8.04
9.076,8.164
9.08,8.204
9.084,8.08
9.088,8.036
9.092,8.156
9.096,8.192
9.1,8.08
9.104,8.008
9.108,8.128
9.112,8.2
9.116,8.108
9.12,8.016
9.124,8.068
9.128,8.156
9.132,8.08
9.136,8.016
9.14,8.06
9.144,8.164
9.148,8.1
9.152,7.964
9.156,7.988
9.16,8.136
9.164,8.156
9.168,7.996
9.172,7.984
9.176,8.132
9.18,8.136
9.184,8
9.188,7.972
9.192,8.108
9.196,8.156
9.2,8.068
9.204,7.984
9.208,8.092
9.212,8.152
9.216,8.048
9.22,7.952
9.224,8.028
9.228,8.176
9.232,8.048
9.236,7.96
9.24,7.988
9.244,8.128
9.248,8.104
9.252,7.956
9.256,7.98
9.26,8.112
9.264,8.092
9.268,7.972
9.272,7.968
9.276,8.06
9.28,8.104
9.284,7.976
9.288,7.948
9.292,8.056
9.296,8.084
9.3,7.968
9.304,7.888
9.308,8.04
9.312,8.088
9.316,7.996
9.32,7.916
9.324,8.024
9.328,8.084
9.332,8.04
9.336,7.908
9.34,7.992
9.344,8.088
9.348,8.032
9.352,7.916
9.356,7.944
9.36,8.092
9.364,8.06
9.368,7.916
9.372,7.916
9.376,8.032
9.38,8.096
9.384,7.956
9.388,7.924
9.392,8.028
9.396,8.08
9.4,7.964
9.404,7.892
9.408,8.004
9.412,8.04
9.416,7.96
9.42,7.9
9.424,7.964
9.428,8.04
9.432,7.988
9.436,7.872
9.44,7.92
9.444,8.076
9.448,8.012
9.452,7.912
9.456,7.892
9.46,8.048
9.464,8.044
9.468,7.904
9.472,7.908
9.476,8.032
9.48,8.04
9.484,7.924
9.488,7.904
9.492,8.024
9.496,8.064
9.5,7.976
9.504,7.924
9.508,7.968
9.512,8.012
9.516,7.944
9.52,7.848
9.524,7.94
9.528,8.076
9.532,8.048
9.536,7.98
9.54,8.044
9.544,8.14
9.548,8.092
9.552,8.032
9.556,8.036
9.56,8.164
9.564,8.152
9.568,8.048
9.572,8.028
9.576,8.136
9.58,8.168
9.584,8.012
9.588,7.944
9.592,8.056
9.596,8.128
9.6,7.968
9.604,7.908
9.608,7.964
9.612,8.044
9.616,7.928
9.62,7.82
9.624,7.888
9.628,7.98
9.632,7.896
9.636,7.776
9.64,7.86
9.644,7.956
9.648,7.916
9.652,7.756
9.656,7.796
9.66,7.928
9.664,7.952
9.668,7.832
9.672,7.776
9.676,7.924
9.68,7.948
9.684,7.772
9.688,7.66
9.692,7.78
9.696,7.94
9.7,8.128
9.704,8.452
9.708,9.192
9.712,9.96
9.716,10.392
9.72,10.276
9.724,9.988
9.728,9.272
9.732,8.596
9.736,8.172
9.74,8.148
9.744,8.204
9.748,8.1
9.752,8
9.756,8.04
9.76,8.148
9.764,8.072
9.768,7.952
9.772,7.88
9.776,8.084
9.78,8.088
9.784,7.932
9.788,7.884
9.792,8.008
9.796,8.064
9.8,7.956
9.804,7.904
9.808,8.036
9.812,8.108
9.816,8.04
9.82,7.92
9.824,8.016
9.828,8.144
9.832,8.036
9.836,7.932
9.84,7.996
9.844,8.136
9.848,8.084
9.852,7.988
9.856,7.988
9.86,8.124
9.864,8.124
9.868,8.012
9.872,8.032
9.876,8.128
9.88,8.168
9.884,8.036
9.888,8.028
9.892,8.176
9.896,8.204
9.9,8.104
9.904,8.04
9.908,8.168
9.912,8.22
9.916,8.152
9.92,8.048
9.924,8.152
9.928,8.252
9.932,8.212
9.936,8.124
9.94,8.204
9.944,8.324
9.948,8.32
9.952,8.192
9.956,8.252
9.96,8.4
9.964,8.416
9.968,8.32
9.972,8.336
9.976,8.476
9.98,8.52
9.984,8.44
9.988,8.412
9.992,8.596
9.996,8.668
10,8.6
10.004,8.556
10.008,8.696
10.012,8.796
10.016,8.728
10.02,8.668
10.024,8.78
10.028,8.876
10.032,8.836
10.036,8.768
10.04,8.792
10.044,8.904
10.048,8.848
10.052,8.752
10.056,8.744
10.06,8.868
10.064,8.832
10.068,8.664
10.072,8.644
10.076,8.736
10.08,8.716
10.084,8.54
10.088,8.46
10.092,8.54
10.096,8.52
10.1,8.352
10.104,8.236
10.108,8.304
10.112,8.36
10.116,8.248
10.12,8.124
10.124,8.156
10.128,8.216
10.132,8.164
10.136,8.028
10.14,8.036
10.144,8.1
10.148,8.064
10.152,8.004
10.156,8
10.16,8.108
10.164,8.064
10.168,7.932
10.172,7.944
10.176,8.072
10.18,8.052
10.184,7.968
10.188,7.92
10.192,8.048
10.196,8.088
10.2,7.988
10.204,7.888
10.208,8.02
10.212,8.108
10.216,7.996
10.22,7.924
10.224,7.988
10.228,8.068
10.232,8.044
10.236,7.944
10.24,8.008
10.244,8.088
10.248,8.08
10.252,7.952
10.256,7.972
10.26,8.144
10.264,8.116
10.268,8.004
10.272,7.96
10.276,8.08
10.28,8.128
10.284,7.992
10.288,7.964
10.292,8.072
10.296,8.116
10.3,7.984
10.304,7.94
10.308,8.068
10.312,8.14
10.316,8.032
10.32,7.912
10.324,8.004
10.328,8.096
10.332,8.02
10.336,7.908
10.34,7.964
10.344,8.068
10.348,8.052
10.352,7.94
10.356,7.928
10.36,8.084
10.364,8.064
10.368,7.964
10.372,7.928
10.376,8.032
10.38,8.068
10.384,7.948
10.388,7.9
10.392,8.028
10.396,8.08
10.4,7.948
10.404,7.884
10.408,7.992
10.412,8.068
10.416,7.996
10.42,7.896
10.424,7.956
10.428,8.08
10.432,8.008
10.436,7.908
10.44,7.908
10.444,8.04
10.448,8.008
10.452,7.892
10.456,7.92
10.46,8.068
10.464,8.052
10.468,7.904
10.472,7.868
10.476,8.028
10.48,8.044
10.484,7.916
10.488,7.88
10.492,8.008
10.496,8.06
10.5,7.92
10.504,7.868
10.508,7.992
10.512,8.024
10.516,7.96
10.52,7.888
10.524,7.94
10.528,8.044
10.532,7.976
10.536,7.88
10.54,7.928
10.544,8.084
10.548,8.02
10.552,7.896
10.556,7.916
10.56,8.052
10.564,8.044
10.568,7.928
10.572,7.916
10.576,8.02
10.58,8.06
10.584,7.932
10.588,7.904
10.592,8.012
10.596,8.084
10.6,7.944
10.604,7.9
10.608,7.984
10.612,8.044
10.616,7.96
10.62,7.872
10.624,7.944
10.628,8.056
10.632,8.004
10.636,7.892
10.64,7.912
10.644,8.044
10.648,8.036
10.652,7.896
10.656,7.9
10.66,8.036
10.664,8.044
10.668,7.896
10.672,7.892
10.676,8.028
10.68,8.056
10.684,7.924
10.688,7.888
10.692,7.992
10.696,8.056
10.7,7.924
10.704,7.86
10.708,7.992
10.712,8.052
10.716,7.968
10.72,7.844
10.724,7.932
10.728,8.032
10.732,8.004
10.736,7.884
10.74,7.904
10.744,8.004
10.748,7.988
10.752,7.896
10.756,7.892
10.76,8.016
10.764,8
10.768,7.916
10.772,7.888
10.776,8.064
10.78,8.136
10.784,8.052
10.788,7.98
10.792,8.092
10.796,8.148
10.8,8.064
10.804,8.008
10.808,8.088
10.812,8.18
10.816,8.08
10.82,7.996
10.824,8.056
10.828,8.112
10.832,8.004
10.836,7.88
10.84,7.928
10.844,8.068
10.848,8.024
10.852,7.84
10.856,7.824
10.86,7.98
10.864,7.996
10.868,7.856
10.872,7.816
10.876,7.916
10.88,7.964
10.884,7.848
10.888,7.808
10.892,7.92
10.896,7.968
10.9,7.844
10.904,7.792
10.908,7.896
10.912,8.008
10.916,7.892
10.92,7.796
10.924,7.82
10.928,7.86
10.932,7.78
10.936,7.688
10.94,7.976
10.944,8.412
10.948,8.872
10.952,9.488
10.956,10.108
10.96,10.496
10.964,10.224
10.968,9.492
10.972,8.744
10.976,8.404
10.98,8.256
10.984,8.088
10.988,7.972
10.992,8.116
10.996,8.192
11,8.04
11.004,7.94
11.008,7.996
11.012,8.036
11.016,7.96
11.02,7.856
11.024,7.936
11.028,8.02
11.032,7.976
11.036,7.884
11.04,7.924
11.044,8.04
11.048,8.028
11.052,7.916
11.056,7.912
11.06,8.044
11.064,8.064
11.068,7.92
11.072,7.892
11.076,8.02
11.08,8.084
11.084,7.968
11.088,7.928
11.092,8.052
11.096,8.096
11.1,8.012
11.104,7.952
11.108,8.048
11.112,8.132
11.116,8.048
11.12,7.968
11.124,8.048
11.128,8.148
11.132,8.084
11.136,7.988
11.14,8.056
11.144,8.184
11.148,8.148
11.152,8.028
11.156,8.04
11.16,8.184
11.164,8.216
11.168,8.104
11.172,8.076
11.176,8.196
11.18,8.216
11.184,8.152
11.188,8.124
11.192,8.256
11.196,8.34
11.2,8.252
11.204,8.196
11.208,8.328
11.212,8.42
11.216,8.344
11.22,8.3
11.224,8.392
11.228,8.536
11.232,8.5
11.236,8.448
11.24,8.52
11.244,8.648
11.248,8.66
11.252,8.576
11.256,8.596
11.26,8.752
11.264,8.76
11.268,8.66
11.272,8.664
11.276,8.836
11.28,8.86
11.284,8.74
11.288,8.66
11.292,8.78
11.296,8.84
11.3,8.736
11.304,8.628
11.308,8.696
11.312,8.744
11.316,8.648
11.32,8.5
11.324,8.532
11.328,8.56
11.332,8.456
11.336,8.336
11.34,8.304
11.344,8.38
11.348,8.332
11.352,8.168
11.356,8.108
11.36,8.232
11.364,8.192
11.368,8.064
11.372,7.984
11.376,8.12
11.38,8.128
11.384,8.016
11.388,7.952
11.392,8.032
11.396,8.076
11.4,7.98
11.404,7.916
11.408,7.964
11.412,8.04
11.416,7.98
11.42,7.892
11.424,7.972
11.428,8.068
11.432,8
11.436,7.864
11.44,7.908
11.444,8.032
11.448,8.004
11.452,7.884
11.456,7.876
11.46,8.004
11.464,8.044
11.468,7.928
11.472,7.896
11.476,8.016
11.48,8.052
11.484,7.94
11.488,7.904
11.492,8
11.496,8.048
11.5,7.98
11.504,7.904
11.508,8
11.512,8.06
11.516,8.016
11.52,7.896
11.524,7.96
11.528,8.072
11.532,8.024
11.536,7.908
11.54,7.92
11.544,8.052
11.548,8
11.552,7.88
11.556,7.908
11.56,8.036
11.564,8.032
11.568,7.904
11.572,7.892
11.576,8.016
11.58,8.044
11.584,7.916
11.588,7.844
11.592,7.968
11.596,8.016
11.6,7.94
11.604,7.852
11.608,7.952
11.612,7.992
11.616,7.924
11.62,7.844
11.624,7.884
11.628,8.012
11.632,7.972
11.636,7.832
11.64,7.884
11.644,8.016
11.648,7.984
11.652,7.852
11.656,7.836
11.66,7.96
11.664,8.012
11.668,7.892
11.672,7.844
11.676,7.972
11.68,8.016
11.684,7.92
11.688,7.88
11.692,7.964
11.696,8.008
11.7,7.916
11.704,7.872
11.708,7.984
11.712,8.048
11.716,7.952
11.72,7.844
11.724,7.888
11.728,8.024
11.732,7.98
11.736,7.844
11.74,7.884
11.744,8.004
11.748,8.016
11.752,7.88
11.756,7.88
11.76,8
11.764,8.012
11.768,7.892
11.772,7.868
11.776,7.992
11.78,8.032
11.784,7.924
11.788,7.836
11.792,7.952
11.796,8.028
11.8,7.916
11.804,7.832
11.808,7.924
11.812,8.008
11.816,7.932
11.82,7.82
11.824,7.896
11.828,8.012
11.832,7.96
11.836,7.856
11.84,7.876
11.844,7.988
11.848,7.988
11.852,7.852
11.856,7.88
11.86,8.008
11.864,8.032
11.868,7.876
11.872,7.864
11.876,8.004
11.88,8.032
11.884,7.932
11.888,7.852
11.892,7.956
11.896,7.996
11.9,7.932
11.904,7.824
11.908,7.92
11.912,8.032
11.916,7.952
11.92,7.824
11.924,7.876
11.928,7.988
11.932,7.956
11.936,7.852
11.94,7.88
11.944,8.016
11.948,8.012
11.952,7.872
11.956,7.884
11.96,8.008
11.964,8.044
11.968,7.92
11.972,7.856
11.976,7.976
11.98,8.032
11.984,7.908
11.988,7.876
11.992,8.004
11.996,8.084
12,8.032
12.004,7.98
12.008,8.092
12.012,8.18
12.016,8.108
12.02,8.004
12.024,8.072
12.028,8.172
12.032,8.128
12.036,8.016
12.04,8.044
12.044,8.188
12.048,8.14
12.052,7.988
12.056,7.964
12.06,8.124
12.064,8.096
12.068,7.956
12.072,7.912
12.076,7.992
12.08,8.028
12.084,7.9
12.088,7.84
12.092,7.932
12.096,8.02
12.1,7.908
12.104,7.816
12.108,7.888
12.112,8.016
12.116,7.932
12.12,7.812
12.124,7.876
12.128,7.992
12.132,7.964
12.136,7.856
12.14,7.896
12.144,8.028
12.148,7.904
12.152,7.744
12.156,7.684
12.16,7.948
12.164,8.24
12.168,8.424
12.172,8.992
12.176,9.852
12.18,10.492
12.184,10.548
12.188,10.208
12.192,9.524
12.196,8.984
12.2,8.488
12.204,8.26
12.208,8.22
12.212,8.252
12.216,8.188
12.22,8.084
12.224,8.124
12.228,8.184
12.232,8.08
12.236,7.972
12.24,7.984
12.244,8.112
12.248,8.1
12.252,7.968
12.256,7.968
12.26,8.088
12.264,8.116
12.268,8.012
12.272,7.98
12.276,8.084
12.28,8.136
12.284,8.028
12.288,7.98
12.292,8.08
12.296,8.144
12.3,8.06
12.304,7.98
12.308,8.064
12.312,8.14
12.316,8.072
12.32,7.936
12.324,8.016
12.328,8.164
12.332,8.108
12.336,8.028
12.34,8.028
12.344,8.188
12.348,8.164
12.352,8.076
12.356,8.064
12.36,8.2
12.364,8.236
12.368,8.116
12.372,8.048
12.376,8.22
12.38,8.252
12.384,8.192
12.388,8.116
12.392,8.2
12.396,8.332
12.4,8.268
12.404,8.156
12.408,8.264
12.412,8.404
12.416,8.34
12.42,8.244
12.424,8.328
12.428,8.48
12.432,8.464
12.436,8.356
12.44,8.42
12.444,8.596
12.448,8.588
12.452,8.504
12.456,8.536
12.46,8.732
12.464,8.772
12.468,8.636
12.472,8.648
12.476,8.8
12.48,8.884
12.484,8.816
12.488,8.756
12.492,8.896
12.496,8.972
12.5,8.908
12.504,8.824
12.508,8.912
12.512,9
12.516,8.948
12.52,8.832
12.524,8.86
12.528,8.96
12.532,8.896
12.536,8.744
12.54,8.704
12.544,8.788
12.548,8.756
12.552,8.584
12.556,8.488
12.56,8.56
12.564,8.532
12.568,8.376
12.572,8.272
12.576,8.36
12.58,8.348
12.584,8.236
12.588,8.12
12.592,8.232
12.596,8.276
12.6,8.104
12.604,8.028
12.608,8.084
12.612,8.168
12.616,8.1
12.62,8.012
12.624,8.032
12.628,8.136
12.632,8.12
12.636,7.984
12.64,7.992
12.644,8.128
12.648,8.132
12.652,7.988
12.656,7.952
12.66,8.112
12.664,8.108
12.668,7.992
12.672,7.936
12.676,8.076
12.68,8.14
12.684,8.012
12.688,7.908
12.692,8.088
12.696,8.192
12.7,8.104
12.704,8.02
12.708,8.092
12.712,8.164
12.716,8.104
12.72,8.028
12.724,8.048
12.728,8.18
12.732,8.132
12.736,8.032
12.74,8.028
12.744,8.16
12.748,8.128
12.752,7.992
12.756,8.008
12.76,8.156
12.764,8.164
12.768,8.032
12.772,7.98
12.776,8.096
12.78,8.172
12.784,8.044
12.788,7.968
12.792,8.072
12.796,8.128
12.8,8.044
12.804,7.932
12.808,8.028
12.812,8.132
12.816,8.072
12.82,7.94
12.824,7.98
12.828,8.14
12.832,8.1
12.836,7.956
12.84,7.96
12.844,8.068
12.848,8.084
12.852,7.956
12.856,7.932
12.86,8.036
12.864,8.056
12.868,7.968
12.872,7.952
12.876,8.076
12.88,8.112
12.884,7.992
12.888,7.932
12.892,8.008
12.896,8.092
12.9,8.008
12.904,7.892
12.908,8.004
12.912,8.064
12.916,8.024
12.92,7.932
12.924,7.96
12.928,8.06
12.932,8.028
12.936,7.912
12.94,7.94
12.944,8.064
12.948,8.04
12.952,7.948
12.956,7.904
12.96,8.064
12.964,8.096
12.968,7.988
12.972,7.912
12.976,8.008
12.98,8.096
12.984,8.004
12.988,7.9
12.992,8.004
12.996,8.092
13,8.016
13.004,7.916
13.008,7.98
13.012,8.104
13.016,8.012
13.02,7.936
13.024,7.968
13.028,8.1
13.032,8.04
13.036,7.936
13.04,7.94
13.044,8.052
13.048,8.068
13.052,7.952
13.056,7.928
13.06,8.06
13.064,8.108
13.068,7.976
13.072,7.928
13.076,8.048
13.08,8.108
13.084,7.98
13.088,7.936
13.092,8.048
13.096,8.1
13.1,8.024
13.104,7.912
13.108,7.98
13.112,8.132
13.116,8.052
13.12,7.952
13.124,7.972
13.128,8.104
13.132,8.096
13.136,7.984
13.14,7.976
13.144,8.108
13.148,8.088
13.152,7.968
13.156,7.948
13.16,8.088
13.164,8.136
13.168,8.008
13.172,7.968
13.176,8.1
13.18,8.128
13.184,7.98
13.188,7.936
13.192,8.064
13.196,8.152
13.2,8.068
13.204,7.944
13.208,7.996
13.212,8.124
13.216,8.068
13.22,7.976
13.224,8.032
13.228,8.152
13.232,8.176
13.236,8.08
13.24,8.112
13.244,8.224
13.248,8.252
13.252,8.124
13.256,8.104
13.26,8.256
13.264,8.28
13.268,8.152
13.272,8.096
13.276,8.224
13.28,8.268
13.284,8.136
13.288,8.012
13.292,8.108
13.296,8.2
13.3,8.1
13.304,7.976
13.308,8.044
13.312,8.132
13.316,8.08
13.32,7.948
13.324,7.96
13.328,8.088
13.332,8.044
13.336,7.908
13.34,7.956
13.344,8.068
13.348,8.048
13.352,7.932
13.356,7.888
13.36,8.06
13.364,8.092
13.368,7.98
13.372,7.948
13.376,8.052
13.38,8.02
13.384,7.844
13.388,7.788
13.392,8.048
13.396,8.416
13.4,8.76
13.404,9.34
13.408,10.148
13.412,10.728
13.416,10.644
13.42,10.112
13.424,9.312
13.428,8.856
13.432,8.532
13.436,8.304
13.44,8.232
13.444,8.272
13.448,8.288
13.452,8.192
13.456,8.12
13.46,8.224
13.464,8.204
13.468,8.076
13.472,8.004
13.476,8.144
13.48,8.2
13.484,8.064
13.488,7.98
13.492,8.1
13.496,8.184
13.5,8.1
13.504,8.024
13.508,8.096
13.512,8.184
13.516,8.144
13.52,8.044
13.524,8.088
13.528,8.192
13.532,8.168
13.536,8.024
13.54,8.06
13.544,8.2
13.548,8.212
13.552,8.064
13.556,8.056
13.56,8.22
13.564,8.256
13.568,8.148
13.572,8.072
13.576,8.228
13.58,8.292
13.584,8.192
13.588,8.084
13.592,8.2
13.596,8.312
13.6,8.24
13.604,8.148
13.608,8.204
13.612,8.32
13.616,8.284
13.62,8.188
13.624,8.228
13.628,8.364
13.632,8.364
13.636,8.256
13.64,8.244
13.644,8.388
13.648,8.448
13.652,8.328
13.656,8.328
13.66,8.492
13.664,8.548
13.668,8.46
13.672,8.408
13.676,8.584
13.68,8.692
13.684,8.576
13.688,8.568
13.692,8.68
13.696,8.824
13.7,8.768
13.704,8.68
13.708,8.772
13.712,8.92
13.716,8.908
13.72,8.804
13.724,8.864
13.728,8.984
13.732,9.004
13.736,8.912
13.74,8.884
13.744,9.008
13.748,8.984
13.752,8.864
13.756,8.828
13.76,8.932
13.764,8.916
13.768,8.764
13.772,8.668
13.776,8.748
13.78,8.744
13.784,8.616
13.788,8.484
13.792,8.524
13.796,8.556
13.8,8.404
13.804,8.28
13.808,8.316
13.812,8.376
13.816,8.268
13.82,8.156
13.824,8.156
13.828,8.236
13.832,8.22
13.836,8.064
13.84,8.02
13.844,8.18
13.848,8.168
13.852,8.036
13.856,7.992
13.86,8.104
13.864,8.148
13.868,8.024
13.872,7.992
13.876,8.1
13.88,8.144
13.884,8.088
13.888,7.952
13.892,8.044
13.896,8.112
13.9,8.06
13.904,7.956
13.908,8.032
13.912,8.128
13.916,8.068
13.92,7.952
13.924,7.98
13.928,8.132
13.932,8.088
13.936,7.988
13.94,7.984
13.944,8.108
13.948,8.116
13.952,8.02
13.956,8.012
13.96,8.14
13.964,8.148
13.968,8.044
13.972,7.996
13.976,8.112
13.98,8.192
13.984,8.1
13.988,8.004
13.992,8.092
13.996,8.168
14,8.08
14.004,7.984
14.008,8.056
14.012,8.144
14.016,8.116
14.02,8.02
14.024,7.996
14.028,8.148
14.032,8.108
14.036,7.98
14.04,7.972
14.044,8.108
14.048,8.1
14.052,8
14.056,7.96
14.06,8.088
14.064,8.12
14.068,8.008
14.072,7.924
14.076,8.052
14.08,8.092
14.084,8.032
14.088,7.944
14.092,8.012
14.096,8.108
14.1,8.036
14.104,7.944
14.108,8.004
14.112,8.088
14.116,8.012
14.12,7.92
14.124,7.956
14.128,8.072
14.132,8.064
14.136,7.944
14.14,7.96
14.144,8.084
14.148,8.064
14.152,7.944
14.156,7.912
14.16,8.052
14.164,8.08
14.168,7.988
14.172,7.94
14.176,8.036
14.18,8.076
14.184,7.992
14.188,7.936
14.192,7.992
14.196,8.088
14.2,7.992
14.204,7.9
14.208,7.984
14.212,8.096
14.216,8.012
14.22,7.924
14.224,7.964
14.228,8.08
14.232,8.056
14.236,7.936
14.24,7.94
14.244,8.052
14.248,8.064
14.252,7.94
14.256,7.924
14.26,8.04
14.264,8.08
14.268,7.944
14.272,7.9
14.276,8.036
14.28,8.076
14.284,7.976
14.288,7.9
14.292,7.992
14.296,8.092
14.3,8.02
14.304,7.912
14.308,7.968
14.312,8.08
14.316,8.016
14.32,7.932
14.324,7.948
14.328,8.076
14.332,8.06
14.336,7.92
14.34,7.908
14.344,8.064
14.348,8.084
14.352,7.92
14.356,7.896
14.36,8.04
14.364,8.068
14.368,7.948
14.372,7.876
14.376,8
14.38,8.076
14.384,8.004
14.388,7.908
14.392,8.008
14.396,8.08
14.4,8.02
14.404,7.92
14.408,8.028
14.412,8.096
14.416,8.028
14.42,7.952
14.424,7.992
14.428,8.116
14.432,8.056
14.436,7.928
14.44,7.952
14.444,8.092
14.448,8.104
14.452,7.996
14.456,7.976
14.46,8.132
14.464,8.204
14.468,8.132
14.472,8.056
14.476,8.164
14.48,8.212
14.484,8.164
14.488,8.08
14.492,8.148
14.496,8.224
14.5,8.172
14.504,8.06
14.508,8.112
14.512,8.22
14.516,8.136
14.52,8.004
14.524,8.028
14.528,8.116
14.532,8.104
14.536,7.964
14.54,7.936
14.544,8.036
14.548,8.036
14.552,7.892
14.556,7.852
14.56,7.988
14.564,8.016
14.568,7.904
14.572,7.844
14.576,7.98
14.58,8.016
14.584,7.92
14.588,7.844
14.592,7.944
14.596,8.028
14.6,7.972
14.604,7.892
14.608,7.916
14.612,7.944
14.616,7.88
14.62,7.792
14.624,8.052
14.628,8.492
14.632,9.004
14.636,9.636
14.64,10.288
14.644,10.708
14.648,10.444
14.652,9.708
14.656,8.916
14.66,8.532
14.664,8.384
14.668,8.208
14.672,8.096
14.676,8.18
14.68,8.272
14.684,8.148
14.688,8.036
14.692,8.08
14.696,8.156
14.7,8.044
14.704,7.972
14.708,8.016
14.712,8.14
14.716,8.08
14.72,7.968
14.724,7.996
14.728,8.116
14.732,8.092
14.736,7.996
14.74,8
14.744,8.14
14.748,8.136
14.752,8.032
14.756,7.98
14.76,8.116
14.764,8.14
14.768,8.048
14.772,7.996
14.776,8.08
14.78,8.192
14.784,8.072
14.788,7.972
14.792,8.068
14.796,8.208
14.8,8.136
14.804,8.024
14.808,8.052
14.812,8.196
14.816,8.176
14.82,8.06
14.824,8.1
14.828,8.228
14.832,8.208
14.836,8.112
14.84,8.108
14.844,8.244
14.848,8.276
14.852,8.16
14.856,8.124
14.86,8.284
14.864,8.356
14.868,8.228
14.872,8.184
14.876,8.34
14.88,8.424
14.884,8.372
14.888,8.276
14.892,8.412
14.896,8.508
14.9,8.464
14.904,8.36
14.908,8.452
14.912,8.596
14.916,8.604
14.92,8.528
14.924,8.592
14.928,8.772
14.932,8.756
14.936,8.684
14.94,8.696
14.944,8.872
14.948,8.912
14.952,8.8
14.956,8.776
14.96,8.92
14.964,8.972
14.968,8.852
14.972,8.792
14.976,8.908
14.98,8.948
14.984,8.856
14.988,8.74
14.992,8.836
14.996,8.88
15,8.756
15.004,8.616
15.008,8.632
15.012,8.696
15.016,8.592
15.02,8.412
15.024,8.404
15.028,8.5
15.032,8.416
15.036,8.264
15.04,8.204
15.044,8.316
15.048,8.288
15.052,8.156
15.056,8.088
15.06,8.2
15.064,8.216
15.068,8.072
15.072,8
15.076,8.112
15.08,8.172
15.084,8.048
15.088,7.956
15.092,8.064
15.096,8.128
15.1,8.068
15.104,7.96
15.108,7.996
15.112,8.108
15.116,8.056
15.12,7.976
15.124,7.964
15.128,8.08
15.132,8.068
15.136,7.98
15.14,7.948
15.144,8.064
15.148,8.108
15.152,7.988
15.156,7.936
15.16,8.08
15.164,8.152
15.168,8.016
15.172,7.952
15.176,8.068
15.18,8.152
15.184,8.044
15.188,7.984
15.192,8.052
15.196,8.14
15.2,8.072
15.204,7.968
15.208,8.028
15.212,8.136
15.216,8.104
15.22,7.98
15.224,8.004
15.228,8.156
15.232,8.124
15.236,7.98
15.24,7.96
15.244,8.088
15.248,8.124
15.252,7.996
15.256,7.944
15.26,8.056
15.264,8.1
15.268,8
15.272,7.932
15.276,8.044
15.28,8.108
15.284,8.012
15.288,7.92
15.292,7.988
15.296,8.104
15.3,8.004
15.304,7.904
15.308,7.98
15.312,8.084
15.316,8.052
15.32,7.904
15.324,7.932
15.328,8.068
15.332,8.056
15.336,7.916
15.34,7.908
15.344,8.052
15.348,8.076
15.352,7.928
15.356,7.896
15.36,8.02
15.364,8.068
15.368,7.98
15.372,7.868
15.376,7.984
15.38,8.076
15.384,7.976
15.388,7.892
15.392,7.96
15.396,8.076
15.4,7.988
15.404,7.9
15.408,7.936
15.412,8.048
15.416,8.02
15.42,7.916
15.424,7.92
15.428,8.064
15.432,8.04
15.436,7.904
15.44,7.884
15.444,8.032
15.448,8.032
15.452,7.936
15.456,7.876
15.46,8.016
15.464,8.08
15.468,7.952
15.472,7.888
15.476,8.004
15.48,8.064
15.484,7.984
15.488,7.904
15.492,8.004
15.496,8.06
15.5,7.972
15.504,7.884
15.508,7.928
15.512,8.048
15.516,7.98
15.52,7.864
15.524,7.888
15.528,8.016
15.532,8.016
15.536,7.88
15.54,7.864
15.544,7.996
15.548,8.028
15.552,7.904
15.556,7.828
15.56,7.952
15.564,8.028
15.568,7.88
15.572,7.84
15.576,7.936
15.58,8.024
15.584,7.924
15.588,7.824
15.592,7.912
15.596,8.004
15.6,7.948
15.604,7.844
15.608,7.88
15.612,8.012
15.616,7.972
15.62,7.848
15.624,7.852
15.628,7.964
15.632,7.984
15.636,7.884
15.64,7.832
15.644,7.952
15.648,7.988
15.652,7.832
15.656,7.812
15.66,7.948
15.664,7.972
15.668,7.876
15.672,7.76
15.676,7.9
15.68,8
15.684,7.924
15.688,7.888
15.692,7.972
15.696,8.112
15.7,8.056
15.704,7.944
15.708,7.984
15.712,8.104
15.716,8.068
15.72,7.964
15.724,7.98
15.728,8.108
15.732,8.088
15.736,7.956
15.74,7.932
15.744,8.036
15.748,8.028
15.752,7.912
15.756,7.856
15.76,7.952
15.764,8.008
15.768,7.9
15.772,7.8
15.776,7.884
15.78,7.952
15.784,7.844
15.788,7.744
15.792,7.84
15.796,7.904
15.8,7.848
15.804,7.74
15.808,7.796
15.812,7.912
15.816,7.868
15.82,7.752
15.824,7.784
15.828,7.928
15.832,7.928
15.836,7.8
15.84,7.684
15.844,7.78
15.848,7.816
15.852,7.876
15.856,8.068
15.86,8.624
15.864,9.336
15.868,9.976
15.872,10.348
15.876,10.332
15.88,9.98
15.884,9.088
15.888,8.392
15.892,8.216
15.896,8.26
15.9,8.144
15.904,8.012
15.908,8.048
15.912,8.18
15.916,8.068
15.92,7.952
15.924,7.94
15.928,8.096
15.932,8.052
15.936,7.928
15.94,7.9
15.944,8.04
15.948,8.052
15.952,7.964
15.956,7.896
15.96,8.052
15.964,8.116
15.968,7.996
15.972,7.94
15.976,8.048
15.98,8.136
15.984,8.056
15.988,7.972
15.992,8.036
15.996,8.144
16,8.112
16.004,8.032
16.008,8.036
16.012,8.164
16.016,8.136
16.02,8.04
16.024,8.04
16.028,8.18
16.032,8.192
16.036,8.076
16.04,8.024
16.044,8.168
16.048,8.212
16.052,8.088
16.056,8.052
16.06,8.172
16.064,8.244
16.068,8.16
16.072,8.064
16.076,8.168
16.08,8.268
16.084,8.192
16.088,8.108
16.092,8.204
16.096,8.276
16.1,8.248
16.104,8.132
16.108,8.204
16.112,8.34
16.116,8.332
16.12,8.224
16.124,8.24
16.128,8.416
16.132,8.456
16.136,8.376
16.14,8.384
16.144,8.56
16.148,8.584
16.152,8.54
16.156,8.504
16.16,8.624
16.164,8.748
16.168,8.684
16.172,8.588
16.176,8.736
16.18,8.84
16.184,8.784
16.188,8.708
16.192,8.78
16.196,8.88
16.2,8.828
16.204,8.728
16.208,8.764
16.212,8.856
16.216,8.812
16.22,8.664
16.224,8.64
16.228,8.72
16.232,8.688
16.236,8.508
16.24,8.436
16.244,8.5
16.248,8.436
16.252,8.28
16.256,8.196
16.26,8.316
16.264,8.336
16.268,8.168
16.272,8.068
16.276,8.136
16.28,8.176
16.284,8.06
16.288,7.948
16.292,8
16.296,8.072
16.3,8.04
16.304,7.912
16.308,7.936
16.312,8.024
16.316,8.012
16.32,7.908
16.324,7.876
16.328,8.008
16.332,8
16.336,7.86
16.34,7.816
16.344,7.94
16.348,7.952
16.352,7.868
16.356,7.808
16.36,7.924
16.364,8
16.368,7.908
16.372,7.86
16.376,7.928
16.38,8.004
16.384,7.936
16.388,7.832
16.392,7.908
16.396,8.012
16.4,7.948
16.404,7.868
16.408,7.892
16.412,8.008
16.416,8.02
16.42,7.884
16.424,7.888
16.428,8.012
16.432,8.024
16.436,7.936
16.44,7.884
16.444,8.016
16.448,8.056
16.452,7.956
16.456,7.876
16.46,8
16.464,8.048
16.468,7.96
16.472,7.872
16.476,7.976
16.48,8.032
16.484,7.98
16.488,7.864
16.492,7.936
16.496,8.064
16.5,8.012
16.504,7.9
16.508,7.9
16.512,8.036
16.516,7.992
16.52,7.904
16.524,7.892
16.528,8.028
16.532,8.012
16.536,7.9
16.54,7.872
16.544,8
16.548,8.028
16.552,7.888
16.556,7.824
16.56,7.96
16.564,8.024
16.568,7.928
16.572,7.836
16.576,7.928
16.58,8.004
16.584,7.94
16.588,7.848
16.592,7.904
16.596,8.004
16.6,7.952
16.604,7.86
16.608,7.904
16.612,8.012
16.616,7.988
16.62,7.892
16.624,7.888
16.628,8.032
16.632,8.02
16.636,7.88
16.64,7.888
16.644,7.996
16.648,8.036
16.652,7.94
16.656,7.876
16.66,7.992
16.664,8.06
16.668,7.988
16.672,7.908
16.676,8.012
16.68,8.052
16.684,7.952
16.688,7.872
16.692,7.94
16.696,8.076
16.7,8.016
16.704,7.868
16.708,7.896
16.712,8.004
16.716,8.036
16.72,7.892
16.724,7.852
16.728,7.988
16.732,8
16.736,7.904
16.74,7.808
16.744,7.924
16.748,7.96
16.752,7.832
16.756,7.812
16.76,7.904
16.764,7.92
16.768,7.804
16.772,7.728
16.776,7.836
16.78,7.876
16.784,7.776
16.788,7.62
16.792,7.72
16.796,7.808
16.8,7.8
16.804,7.708
16.808,7.72
16.812,7.836
16.816,7.824
16.82,7.716
16.824,7.724
16.828,7.872
16.832,7.872
16.836,7.732
16.84,7.712
16.844,7.896
16.848,7.94
16.852,7.824
16.856,7.728
16.86,7.84
16.864,7.92
16.868,7.844
16.872,7.732
16.876,7.828
16.88,7.904
16.884,7.848
16.888,7.756
16.892,7.836
16.896,7.928
16.9,7.888
16.904,7.796
16.908,7.876
16.912,8.008
16.916,7.992
16.92,7.9
16.924,7.904
16.928,8.044
16.932,8.072
16.936,7.952
16.94,7.896
16.944,8.048
16.948,8.088
16.952,7.984
16.956,7.936
16.96,8.036
16.964,8.024
16.968,7.908
16.972,7.852
16.976,7.956
16.98,8.008
16.984,7.884
16.988,7.756
16.992,7.82
16.996,7.948
17,7.892
17.004,7.76
17.008,7.788
17.012,7.88
17.016,7.896
17.02,7.768
17.024,7.728
17.028,7.88
17.032,7.912
17.036,7.808
17.04,7.76
17.044,7.872
17.048,7.94
17.052,7.832
17.056,7.752
17.06,7.832
17.064,7.84
17.068,7.72
17.072,7.704
17.076,8.028
17.08,8.496
17.084,8.992
17.088,9.596
17.092,10.228
17.096,10.464
17.1,10.152
17.104,9.348
17.108,8.752
17.112,8.484
17.116,8.32
17.12,8.116
17.124,8.044
17.128,8.16
17.132,8.188
17.136,8.016
17.14,7.94
17.144,8.052
17.148,8.096
17.152,7.956
17.156,7.856
17.16,7.984
17.164,8.052
17.168,7.968
17.172,7.88
17.176,7.972
17.18,8.06
17.184,8.008
17.188,7.92
17.192,7.988
17.196,8.1
17.2,8.048
17.204,7.944
17.208,7.972
17.212,8.116
17.216,8.084
17.22,7.956
17.224,7.936
17.228,8.044
17.232,8.1
17.236,8
17.24,7.972
17.244,8.088
17.248,8.112
17.252,8.052
17.256,7.992
17.26,8.12
17.264,8.144
17.268,8.06
17.272,7.984
17.276,8.104
17.28,8.196
17.284,8.12
17.288,8.044
17.292,8.12
17.296,8.228
17.3,8.16
17.304,8.08
17.308,8.104
17.312,8.264
17.316,8.264
17.32,8.168
17.324,8.16
17.328,8.308
17.332,8.344
17.336,8.244
17.34,8.24
17.344,8.38
17.348,8.452
17.352,8.36
17.356,8.34
17.36,8.488
17.364,8.576
17.368,8.516
17.372,8.464
17.376,8.608
17.38,8.736
17.384,8.712
17.388,8.632
17.392,8.72
17.396,8.844
17.4,8.836
17.404,8.748
17.408,8.796
17.412,8.944
17.416,8.924
17.42,8.804
17.424,8.82
17.428,8.956
17.432,8.944
17.436,8.804
17.44,8.72
17.444,8.824
17.448,8.856
17.452,8.72
17.456,8.592
17.46,8.652
17.464,8.668
17.468,8.544
17.472,8.4
17.476,8.412
17.48,8.428
17.484,8.352
17.488,8.196
17.492,8.248
17.496,8.348
17.5,8.236
17.504,8.068
17.508,8.092
17.512,8.204
17.516,8.196
17.52,8.052
17.524,8.04
17.528,8.136
17.532,8.136
17.536,8.016
17.54,7.972
17.544,8.08
17.548,8.12
17.552,8.012
17.556,7.94
17.56,8.032
17.564,8.096
17.568,7.992
17.572,7.916
17.576,8.012
17.58,8.104
17.584,7.996
17.588,7.912
17.592,7.952
17.596,8.06
17.6,8.072
17.604,7.976
17.608,7.948
17.612,8.108
17.616,8.1
17.62,7.952
17.624,7.972
17.628,8.1
17.632,8.116
17.636,7.988
17.64,7.96
17.644,8.088
17.648,8.104
17.652,8.04
17.656,7.964
17.66,8.076
17.664,8.14
17.668,8.028
17.672,7.936
17.676,8.02
17.68,8.12
17.684,8.06
17.688,7.976
17.692,8.016
17.696,8.1
17.7,8.06
17.704,7.936
17.708,7.964
17.712,8.08
17.716,8.076
17.72,7.92
17.724,7.916
17.728,8.064
17.732,8.076
17.736,7.928
17.74,7.916
17.744,8.024
17.748,8.084
17.752,7.956
17.756,7.888
17.76,8.008
17.764,8.064
17.768,7.964
17.772,7.868
17.776,7.968
17.78,8.072
17.784,7.972
17.788,7.884
17.792,7.936
17.796,8.044
17.8,7.984
17.804,7.876
17.808,7.896
17.812,7.988
17.816,7.972
17.82,7.872
17.824,7.844
17.828,8
17.832,7.988
17.836,7.888
17.84,7.868
17.844,7.972
17.848,8.008
17.852,7.88
17.856,7.852
17.86,7.912
17.864,8.02
17.868,7.908
17.872,7.796
17.876,7.908
17.88,8.02
17.884,7.932
17.888,7.84
17.892,7.884
17.896,7.976
17.9,7.984
17.904,7.852
17.908,7.872
17.912,7.98
17.916,7.988
17.92,7.848
17.924,7.82
17.928,7.964
17.932,8
17.936,7.868
17.94,7.828
17.944,7.896
17.948,7.928
17.952,7.844
17.956,7.76
17.96,7.876
17.964,7.956
17.968,7.86
17.972,7.8
17.976,7.888
17.98,7.96
17.984,7.9
17.988,7.68
17.992,7.884
17.996,7.976
18,7.92
18.004,7.844
18.008,7.864
18.012,7.992
18.016,7.98
18.02,7.876
18.024,7.864
18.028,7.98
18.032,8.028
18.036,7.904
18.04,7.852
18.044,7.976
18.048,8.012
18.052,7.928
18.056,7.884
18.06,7.972
18.064,8.032
18.068,7.952
18.072,7.844
18.076,7.96
18.08,8.048
18.084,7.984
18.088,7.912
18.092,7.936
18.096,8.096
18.1,8.052
18.104,7.912
18.108,7.928
18.112,8.044
18.116,8.056
18.12,7.956
18.124,7.96
18.128,8.128
18.132,8.196
18.136,8.064
18.14,8.04
18.144,8.156
18.148,8.196
18.152,8.072
18.156,8.004
18.16,8.12
18.164,8.204
18.168,8.1
18.172,7.988
18.176,8.024
18.18,8.1
18.184,8.016
18.188,7.888
18.192,7.956
18.196,8.048
18.2,7.988
18.204,7.856
18.208,7.868
18.212,7.984
18.216,7.936
18.22,7.808
18.224,7.772
18.228,7.916
18.232,7.924
18.236,7.828
18.24,7.764
18.244,7.872
18.248,7.932
18.252,7.808
18.256,7.76
18.26,7.856
18.264,7.94
18.268,7.876
18.272,7.764
18.276,7.76
18.28,7.816
18.284,7.744
18.288,7.796
18.292,8.096
18.296,8.608
18.3,9.192
18.304,9.808
18.308,10.308
18.312,10.396
18.316,9.992
18.32,9.084
18.324,8.44
18.328,8.264
18.332,8.228
18.336,8.02
18.34,7.948
18.344,8.108
18.348,8.16
18.352,8
18.356,7.892
18.36,7.98
18.364,8.056
18.368,7.972
18.372,7.872
18.376,7.96
18.38,8.036
18.384,7.964
18.388,7.876
18.392,7.9
18.396,8.028
18.4,8
18.404,7.888
18.408,7.888
18.412,8.036
18.416,8.032
18.42,7.912
18.424,7.9
18.428,8.012
18.432,8.068
18.436,7.932
18.44,7.892
18.444,8.016
18.448,8.076
18.452,7.96
18.456,7.908
18.46,8.04
18.464,8.12
18.468,8.06
18.472,7.948
18.476,8.04
18.48,8.136
18.484,8.064
18.488,7.976
18.492,8.064
18.496,8.172
18.5,8.14
18.504,8.048
18.508,8.056
18.512,8.196
18.516,8.188
18.52,8.072
18.524,8.064
18.528,8.224
18.532,8.276
18.536,8.172
18.54,8.152
18.544,8.308
18.548,8.38
18.552,8.316
18.556,8.272
18.56,8.396
18.564,8.508
18.568,8.468
18.572,8.42
18.576,8.524
18.58,8.656
18.584,8.616
18.588,8.548
18.592,8.632
18.596,8.772
18.6,8.8
18.604,8.692
18.608,8.708
18.612,8.86
18.616,8.892
18.62,8.808
18.624,8.768
18.628,8.876
18.632,8.92
18.636,8.824
18.64,8.76
18.644,8.864
18.648,8.896
18.652,8.776
18.656,8.672
18.66,8.744
18.664,8.788
18.668,8.648
18.672,8.508
18.676,8.536
18.68,8.592
18.684,8.492
18.688,8.32
18.692,8.28
18.696,8.368
18.7,8.316
18.704,8.164
18.708,8.128
18.712,8.196
18.716,8.156
18.72,8.044
18.724,7.98
18.728,8.1
18.732,8.092
18.736,7.96
18.74,7.916
18.744,8.04
18.748,8.064
18.752,7.944
18.756,7.856
18.76,7.98
18.764,8.048
18.768,7.932
18.772,7.776
18.776,7.864
18.78,7.964
18.784,7.9
18.788,7.8
18.792,7.816
18.796,7.952
18.8,7.904
18.804,7.8
18.808,7.82
18.812,7.928
18.816,7.952
18.82,7.828
18.824,7.824
18.828,7.984
18.832,8.016
18.836,7.904
18.84,7.844
18.844,7.964
18.848,8.02
18.852,7.936
18.856,7.872
18.86,7.948
18.864,8.06
18.868,7.988
18.872,7.876
18.876,7.952
18.88,8.064
18.884,8.012
18.888,7.892
18.892,7.92
18.896,8.08
18.9,8.044
18.904,7.916
18.908,7.912
18.912,8.036
18.916,8.068
18.92,7.92
18.924,7.896
18.928,8.004
18.932,8.036
18.936,7.904
18.94,7.888
18.944,7.976
18.948,8.028
18.952,7.928
18.956,7.868
18.96,7.992
18.964,8.052
18.968,7.96
18.972,7.868
18.976,7.932
18.98,8.068
18.984,7.996
18.988,7.904
18.992,7.944
18.996,8.064
19,8.044
19.004,7.928
19.008,7.9
19.012,8.052
19.016,8.044
19.02,7.908
19.024,7.892
19.028,8.032
19.032,8.036
19.036,7.94
19.04,7.888
19.044,7.964
19.048,8.048
19.052,7.94
19.056,7.848
19.06,7.952
19.064,8.028
19.068,7.912
19.072,7.872
19.076,7.924
19.08,8.008
19.084,7.968
19.088,7.86
19.092,7.9
19.096,8.04
19.1,7.98
19.104,7.868
19.108,7.88
19.112,8.016
19.116,7.992
19.12,7.864
19.124,7.86
19.128,7.984
19.132,8.04
19.136,7.904
19.14,7.84
19.144,7.98
19.148,8.016
19.152,7.936
19.156,7.864
19.16,7.944
19.164,8.02
19.168,7.94
19.172,7.836
19.176,7.944
19.18,8.06
19.184,7.96
19.188,7.88
19.192,7.896
19.196,7.992
19.2,7.988
19.204,7.872
19.208,7.876
19.212,8.008
19.216,8.048
19.22,7.94
19.224,7.888
19.228,7.992
19.232,8.068
19.236,7.964
19.24,7.888
19.244,8.016
19.248,8.064
19.252,7.98
19.256,7.896
19.26,7.992
19.264,8.092
19.268,8.012
19.272,7.924
19.276,7.972
19.28,8.088
19.284,8.048
19.288,7.916
19.292,7.944
19.296,8.056
19.3,8.048
19.304,7.932
19.308,7.948
19.312,8.064
19.316,8.056
19.32,7.948
19.324,7.924
19.328,8.08
19.332,8.08
19.336,7.98
19.34,7.94
19.344,8.104
19.348,8.176
19.352,8.084
19.356,8.02
19.36,8.14
19.364,8.232
19.368,8.16
19.372,8.048
19.376,8.12
19.38,8.22
19.384,8.152
19.388,8.06
19.392,8.092
19.396,8.172
19.4,8.108
19.404,7.98
19.408,7.94
19.412,8.112
19.416,8.116
19.42,7.94
19.424,7.876
19.428,7.996
19.432,8.004
19.436,7.932
19.44,7.828
19.444,7.94
19.448,7.992
19.452,7.904
19.456,7.82
19.46,7.904
19.464,7.988
19.468,7.892
19.472,7.82
19.476,7.884
19.48,8.012
19.484,7.932
19.488,7.836
19.492,7.88
19.496,7.956
19.5,7.88
19.504,7.7
19.508,7.812
19.512,8.156
19.516,8.496
19.52,8.908
19.524,9.572
19.528,10.336
19.532,10.52
19.536,10.06
19.54,9.324
19.544,8.744
19.548,8.396
19.552,8.192
19.556,8.064
19.56,8.092
19.564,8.204
19.568,8.144
19.572,8.02
19.576,8.024
19.58,8.104
19.584,8.048
19.588,7.94
19.592,7.968
19.596,8.088
19.6,8.072
19.604,7.952
19.608,7.952
19.612,8.076
19.616,8.088
19.62,7.992
19.624,7.972
19.628,8.08
19.632,8.124
19.636,8.016
19.64,7.964
19.644,8.068
19.648,8.152
19.652,8.048
19.656,7.968
19.66,8.048
19.664,8.164
19.668,8.064
19.672,7.98
19.676,8.052
19.68,8.176
19.684,8.116
19.688,8.032
19.692,8.064
19.696,8.208
19.7,8.176
19.704,8.044
19.708,8.048
19.712,8.196
19.716,8.216
19.72,8.108
19.724,8.068
19.728,8.196
19.732,8.264
19.736,8.168
19.74,8.116
19.744,8.236
19.748,8.288
19.752,8.232
19.756,8.16
19.76,8.276
19.764,8.368
19.768,8.3
19.772,8.228
19.776,8.3
19.78,8.452
19.784,8.424
19.788,8.336
19.792,8.384
19.796,8.556
19.8,8.56
19.804,8.48
19.808,8.496
19.812,8.692
19.816,8.716
19.82,8.66
19.824,8.644
19.828,8.788
19.832,8.856
19.836,8.74
19.84,8.704
19.844,8.856
19.848,8.928
19.852,8.84
19.856,8.768
19.86,8.856
19.864,8.936
19.868,8.868
19.872,8.712
19.876,8.776
19.88,8.844
19.884,8.776
19.888,8.64
19.892,8.616
19.896,8.66
19.9,8.608
19.904,8.46
19.908,8.372
19.912,8.476
19.916,8.448
19.92,8.272
19.924,8.204
19.928,8.292
19.932,8.324
19.936,8.156
19.94,8.076
19.944,8.188
19.948,8.24
19.952,8.132
19.956,8.028
19.96,8.1
19.964,8.188
19.968,8.112
19.972,7.984
19.976,8.044
19.98,8.14
19.984,8.092
19.988,7.992
19.992,8
19.996,8.144
20,8.124
20.004,7.968
20.008,7.972
20.012,8.104
20.016,8.108
20.02,8.012
20.024,7.968
20.028,8.104
20.032,8.136
20.036,8.052
20.04,8.004
20.044,8.12
20.048,8.156
20.052,8.064
20.056,7.984
20.06,8.084
20.064,8.22
20.068,8.12
20.072,8.004
20.076,8.068
20.08,8.212
20.084,8.172
20.088,8.04
20.092,8.056
20.096,8.188
20.1,8.152
20.104,8.04
20.108,8.036
20.112,8.152
20.116,8.152
20.12,8.048
20.124,8.036
20.128,8.18
20.132,8.192
20.136,8.056
20.14,7.996
20.144,8.104
20.148,8.192
20.152,8.116
20.156,7.992
20.16,8.088
20.164,8.184
20.168,8.12
20.172,8.004
20.176,8.056
20.18,8.184
20.184,8.116
20.188,8.024
20.192,8.032
20.196,8.124
20.2,8.112
20.204,8.016
20.208,8
20.212,8.136
20.216,8.148
20.22,8
20.224,7.972
20.228,8.092
20.232,8.148
20.236,8.024
20.24,7.98
20.244,8.072
20.248,8.156
20.252,8.044
20.256,7.98
20.26,8.06
20.264,8.132
20.268,8.092
20.272,7.976
20.276,8.008
20.28,8.144
20.284,8.1
20.288,7.996
20.292,8.028
20.296,8.172
20.3,8.16
20.304,8.012
20.308,7.992
20.312,8.124
20.316,8.156
20.32,8.04
20.324,8.012
20.328,8.112
20.332,8.18
20.336,8.084
20.34,7.996
20.344,8.104
20.348,8.168
20.352,8.064
20.356,8.004
20.36,8.08
20.364,8.188
20.368,8.116
20.372,8.028
20.376,8.076
20.38,8.164
20.384,8.124
20.388,8.016
20.392,8.016
20.396,8.184
20.4,8.16
20.404,8.016
20.408,8.024
20.412,8.14
20.416,8.16
20.42,8.024
20.424,7.976
20.428,8.112
20.432,8.16
20.436,8.028
20.44,7.976
20.444,8.08
20.448,8.152
20.452,8.052
20.456,7.968
20.46,8.032
20.464,8.168
20.468,8.08
20.472,7.984
20.476,8.028
20.48,8.152
20.484,8.092
20.488,7.992
20.492,8.024
20.496,8.172
20.5,8.14
20.504,8.02
20.508,8.008
20.512,8.16
20.516,8.164
20.52,8.02
20.524,8.012
20.528,8.128
20.532,8.164
20.536,8.072
20.54,8.016
20.544,8.14
20.548,8.2
20.552,8.112
20.556,8.064
20.56,8.148
20.564,8.268
20.568,8.176
20.572,8.068
20.576,8.14
20.58,8.236
20.584,8.22
20.588,8.084
20.592,8.12
20.596,8.264
20.6,8.268
20.604,8.12
20.608,8.06
20.612,8.192
20.616,8.208
20.62,8.08
20.624,8.032
20.628,8.136
20.632,8.136
20.636,8.012
20.64,7.936
20.644,8.048
20.648,8.096
20.652,8.008
20.656,7.92
20.66,7.996
20.664,8.084
20.668,8.024
20.672,7.912
20.676,7.964
20.68,8.068
20.684,8.048
20.688,7.964
20.692,7.988
20.696,8.104
20.7,8.08
20.704,7.928
20.708,7.832
20.712,7.916
20.716,8.024
20.72,8.12
20.724,8.396
20.728,9.076
20.732,9.864
20.736,10.364
20.74,10.528
20.744,10.408
20.748,9.808
20.752,9.056
20.756,8.528
20.76,8.432
20.764,8.428
20.768,8.288
20.772,8.18
20.776,8.2
20.78,8.276
20.784,8.188
20.788,8.064
20.792,8.076
20.796,8.204
20.8,8.176
20.804,8.064
20.808,8.012
20.812,8.144
20.816,8.148
20.82,8.052
20.824,8.036
20.828,8.124
20.832,8.188
20.836,8.1
20.84,8.044
20.844,8.168
20.848,8.2
20.852,8.116
20.856,8.04
20.86,8.12
20.864,8.176
20.868,8.136
20.872,8.024
20.876,8.06
20.88,8.188
20.884,8.164
20.888,8.06
20.892,8.072
20.896,8.22
20.9,8.184
20.904,8.072
20.908,8.084
20.912,8.224
20.916,8.244
20.92,8.136
20.924,8.088
20.928,8.188
20.932,8.296
20.936,8.208
20.94,8.168
20.944,8.26
20.948,8.356
20.952,8.244
20.956,8.132
20.96,8.252
20.964,8.4
20.968,8.372
20.972,8.24
20.976,8.304
20.98,8.436
20.984,8.432
20.988,8.36
20.992,8.4
20.996,8.524
21,8.524
21.004,8.496
21.008,8.532
21.012,8.672
21.016,8.74
21.02,8.648
21.024,8.624
21.028,8.796
21.032,8.868
21.036,8.792
21.04,8.752
21.044,8.896
21.048,8.984
21.052,8.908
21.056,8.832
21.06,8.9
21.064,8.976
21.068,8.964
21.072,8.836
21.076,8.896
21.08,9.008
21.084,8.9
21.088,8.804
21.092,8.792
21.096,8.848
21.1,8.836
21.104,8.708
21.108,8.62
21.112,8.692
21.116,8.684
21.12,8.532
21.124,8.432
21.128,8.512
21.132,8.532
21.136,8.356
21.14,8.272
21.144,8.356
21.148,8.372
21.152,8.236
21.156,8.14
21.16,8.26
21.164,8.324
21.168,8.252
21.172,8.128
21.176,8.16
21.18,8.272
21.184,8.192
21.188,8.112
21.192,8.112
21.196,8.236
21.2,8.212
21.204,8.104
21.208,8.076
21.212,8.204
21.216,8.22
21.22,8.096
21.224,8.004
21.228,8.192
21.232,8.268
21.236,8.132
21.24,8.052
21.244,8.124
21.248,8.244
21.252,8.204
21.256,8.08
21.26,8.164
21.264,8.268
21.268,8.204
21.272,8.12
21.276,8.148
21.28,8.256
21.284,8.228
21.288,8.116
21.292,8.14
21.296,8.244
21.3,8.252
21.304,8.112
21.308,8.096
21.312,8.248
21.316,8.272
21.32,8.168
21.324,8.112
21.328,8.236
21.332,8.316
21.336,8.204
21.34,8.112
21.344,8.224
21.348,8.312
21.352,8.208
21.356,8.116
21.36,8.22
21.364,8.332
21.368,8.248
21.372,8.1
21.376,8.108
21.38,8.232
21.384,8.216
21.388,8.044
21.392,8.056
21.396,8.256
21.4,8.272
21.404,8.16
21.408,8.124
21.412,8.336
21.416,8.332
21.42,8.232
21.424,8.16
21.428,8.252
21.432,8.3
21.436,8.196
21.44,8.12
21.444,8.264
21.448,8.36
21.452,8.248
21.456,8.144
21.46,8.232
21.464,8.292
21.468,8.208
21.472,8.088
21.476,8.132
21.48,8.188
21.484,8.2
21.488,8.092
21.492,8.04
21.496,8.192
21.5,8.252
21.504,8.012
21.508,8.068
21.512,8.22
21.516,8.248
21.52,8.148
21.524,8.076
21.528,8.196
21.532,8.264
21.536,8.152
21.54,8.076
21.544,8.188
21.548,8.252
21.552,8.18
21.556,8.048
21.56,8.132
21.564,8.192
21.568,8.152
21.572,8.104
21.576,8.128
21.58,8.244
21.584,8.236
21.588,8.088
21.592,8.076
21.596,8.26
21.6,8.228
21.604,8.1
21.608,8.096
21.612,8.304
21.616,8.284
21.62,8.188
21.624,8.12
21.628,8.24
21.632,8.308
21.636,8.22
21.64,8.128
21.644,8.224
21.648,8.344
21.652,8.252
21.656,8.092
21.66,8.2
21.664,8.292
21.668,8.216
21.672,8.096
21.676,8.152
21.68,8.336
21.684,8.268
21.688,8.188
21.692,8.144
21.696,8.264
21.7,8.272
21.704,8.168
21.708,8.044
21.712,8.236
21.716,8.288
21.72,8.216
21.724,8.144
21.728,8.26
21.732,8.312
21.736,8.2
21.74,8.108
21.744,8.144
21.748,8.244
21.752,8.292
21.756,8.152
21.76,8.276
21.764,8.444
21.768,8.468
21.772,8.348
21.776,8.372
21.78,8.512
21.784,8.52
21.788,8.412
21.792,8.424
21.796,8.524
21.8,8.52
21.804,8.4
21.808,8.38
21.812,8.444
21.816,8.468
21.82,8.432
21.824,8.296
21.828,8.424
21.832,8.464
21.836,8.356
21.84,8.26
21.844,8.324
21.848,8.404
21.852,8.264
21.856,8.168
21.86,8.196
21.864,8.364
21.868,8.256
21.872,8.088
21.876,8.188
21.88,8.34
21.884,8.292
21.888,8.196
21.892,8.208
21.896,8.3
21.9,8.312
21.904,8.184
21.908,8.176
21.912,8.228
21.916,8.136
21.92,8.06
21.924,8.232
21.928,8.608
21.932,9.128
21.936,9.756
21.94,10.352
21.944,10.844
21.948,10.748
21.952,10.116
21.956,9.268
21.96,8.784
21.964,8.652
21.968,8.548
21.972,8.376
21.976,8.436
21.98,8.564
21.984,8.588
21.988,8.408
21.992,8.444
21.996,8.496
22,8.464
22.004,8.448
22.008,8.36
22.012,8.572
22.016,8.456
22.02,8.424
22.024,8.356
22.028,8.524
22.032,8.616
22.036,8.52
22.04,8.552
22.044,8.608
22.048,8.708
22.052,8.6
22.056,8.476
22.06,8.656
22.064,8.708
22.068,8.664
22.072,8.584
22.076,8.68
22.08,8.784
22.084,8.716
22.088,8.632
22.092,8.716
22.096,8.848
22.1,8.896
22.104,8.748
22.108,8.704
22.112,8.876
22.116,9.044
22.12,8.908
22.124,8.84
22.128,8.912
22.132,9.036
22.136,9.04
22.14,8.908
22.144,8.964
22.148,9.012
22.152,8.976
22.156,8.984
22.16,9.02
22.164,9.092
22.168,9.196
22.172,9.056
22.176,9.024
22.18,9.068
22.184,9.084
22.188,9.024
22.192,9.072
22.196,9.264
22.2,9.328
22.204,9.192
22.208,9.092
22.212,9.284
22.216,9.436
22.22,9.52
22.224,9.524
22.228,9.64
22.232,9.524
22.236,9.416
22.24,9.42
22.244,9.608
22.248,9.7
22.252,9.608
22.256,9.48
22.26,9.576
22.264,9.8
22.268,9.76
22.272,9.584
22.276,9.668
22.28,9.748
22.284,9.724
22.288,9.612
22.292,9.5
22.296,9.58
22.3,9.524
22.304,9.376
22.308,9.264
22.312,9.392
22.316,9.288
22.32,9.076
22.324,9.02
22.328,9.068
22.332,9.08
22.336,8.888
22.34,8.76
22.344,8.828
22.348,8.832
22.352,8.736
22.356,8.608
22.36,8.608
22.364,8.696
22.368,8.596
22.372,8.468
22.376,8.508
22.38,8.568
22.384,8.552
22.388,8.452
22.392,8.412
22.396,8.54
22.4,8.5
22.404,8.328
22.408,8.284
22.412,8.412
22.416,8.492
22.42,8.328
22.424,8.252
22.428,8.408
22.432,8.48
22.436,8.376
22.44,8.284
22.444,8.392
22.448,8.468
22.452,8.348
22.456,8.264
22.46,8.3
22.464,8.428
22.468,8.324
22.472,8.324
22.476,8.332
22.48,8.488
22.484,8.42
22.488,8.288
22.492,8.304
22.496,8.496
22.5,8.528
22.504,8.4
22.508,8.312
22.512,8.392
22.516,8.428
22.52,8.328
22.524,8.256
22.528,8.352
22.532,8.42
22.536,8.212
22.54,8.096
22.544,8.26
22.548,8.308
22.552,8.212
22.556,8.04
22.56,8.1
22.564,8.276
22.568,8.244
22.572,8.124
22.576,8.104
22.58,8.224
22.584,8.172
22.588,8.068
22.592,8.056
22.596,8.16
22.6,8.156
22.604,8.008
22.608,7.984
22.612,8.084
22.616,8.116
22.62,8.008
22.624,7.928
22.628,8.064
22.632,8.116
22.636,8.008
22.64,7.928
22.644,8.04
22.648,8.136
22.652,8.068
22.656,8.012
22.66,8.048
22.664,8.124
22.668,8.072
22.672,7.992
22.676,8.044
22.68,8.172
22.684,8.144
22.688,8.008
22.692,8
22.696,8.176
22.7,8.188
22.704,8.068
22.708,8.064
22.712,8.192
22.716,8.22
22.72,8.116
22.724,8.076
22.728,8.156
22.732,8.232
22.736,8.124
22.74,8.012
22.744,8.116
22.748,8.2
22.752,8.1
22.756,8
22.76,8.068
22.764,8.176
22.768,8.116
22.772,7.996
22.776,7.992
22.78,8.156
22.784,8.136
22.788,8.016
22.792,8.036
22.796,8.168
22.8,8.156
22.804,8.06
22.808,8.036
22.812,8.128
22.816,8.196
22.82,8.104
22.824,8.04
22.828,8.192
22.832,8.224
22.836,8.148
22.84,8.072
22.844,8.156
22.848,8.244
22.852,8.164
22.856,8.028
22.86,8.088
22.864,8.244
22.868,8.184
22.872,8.084
22.876,8.072
22.88,8.216
22.884,8.204
22.888,8.076
22.892,8.06
22.896,8.228
22.9,8.204
22.904,8.02
22.908,7.936
22.912,8.148
22.916,8.236
22.92,8.14
22.924,8.1
22.928,8.272
22.932,8.348
22.936,8.276
22.94,8.184
22.944,8.272
22.948,8.368
22.952,8.284
22.956,8.196
22.96,8.212
22.964,8.344
22.968,8.316
22.972,8.16
22.976,8.224
22.98,8.32
22.984,8.232
22.988,8.116
22.992,8.112
22.996,8.232
23,8.228
23.004,8.092
23.008,8.016
23.012,8.12
23.016,8.196
23.02,8.072
23.024,8.02
23.028,8.14
23.032,8.168
23.036,8.048
23.04,7.996
23.044,8.068
23.048,8.156
23.052,8.116
23.056,7.992
23.06,8.056
23.064,8.192
23.068,8.136
23.072,8.024
23.076,8.008
23.08,8.064
23.084,8.048
23.088,7.952
23.092,8.092
23.096,8.504
23.1,8.972
23.104,9.552
23.108,10.252
23.112,10.78
23.116,10.7
23.12,10.096
23.124,9.256
23.128,8.844
23.132,8.656
23.136,8.452
23.14,8.276
23.144,8.332
23.148,8.452
23.152,8.348
23.156,8.188
23.16,8.136
23.164,8.252
23.168,8.216
23.172,8.116
23.176,8.16
23.18,8.296
23.184,8.256
23.188,8.12
23.192,8.12
23.196,8.268
23.2,8.304
23.204,8.192
23.208,8.044
23.212,8.168
23.216,8.2
23.22,8.108
23.224,8.044
23.228,8.116
23.232,8.144
23.236,8.044
23.24,7.976
23.244,8.072
23.248,8.176
23.252,8.124
23.256,8.052
23.26,8.088
23.264,8.208
23.268,8.168
23.272,8.076
23.276,8.108
23.28,8.216
23.284,8.18
23.288,8.06
23.292,8.072
23.296,8.192
23.3,8.228
23.304,8.108
23.308,8.056
23.312,8.184
23.316,8.264
23.32,8.204
23.324,8.184
23.328,8.332
23.332,8.452
23.336,8.388
23.34,8.32
23.344,8.408
23.348,8.46
23.352,8.292
23.356,8.176
23.36,8.256
23.364,8.424
23.368,8.416
23.372,8.328
23.376,8.376
23.38,8.536
23.384,8.532
23.388,8.468
23.392,8.492
23.396,8.664
23.4,8.748
23.404,8.656
23.408,8.66
23.412,8.808
23.416,8.84
23.42,8.752
23.424,8.732
23.428,8.864
23.432,8.936
23.436,8.848
23.44,8.728
23.444,8.852
23.448,8.96
23.452,8.904
23.456,8.788
23.46,8.816
23.464,8.844
23.468,8.752
23.472,8.576
23.476,8.504
23.48,8.592
23.484,8.556
23.488,8.388
23.492,8.328
23.496,8.416
23.5,8.4
23.504,8.22
23.508,8.128
23.512,8.216
23.516,8.244
23.52,8.12
23.524,7.988
23.528,8.072
23.532,8.152
23.536,8.044
23.54,7.956
23.544,8.012
23.548,8.092
23.552,8
23.556,7.884
23.56,7.936
23.564,8.08
23.568,8
23.572,7.876
23.576,7.912
23.58,8.06
23.584,8.048
23.588,7.904
23.592,7.86
23.596,8.028
23.6,8.032
23.604,7.904
23.608,7.872
23.612,8
23.616,8.056
23.62,7.944
23.624,7.896
23.628,7.996
23.632,8.092
23.636,7.984
23.64,7.932
23.644,8.024
23.648,8.096
23.652,8.032
23.656,7.924
23.66,7.984
23.664,8.108
23.668,8.064
23.672,7.964
23.676,7.976
23.68,8.104
23.684,8.072
23.688,7.968
23.692,7.952
23.696,8.08
23.7,8.084
23.704,7.964
23.708,7.92
23.712,8.06
23.716,8.104
23.72,7.976
23.724,7.892
23.728,8.028
23.732,8.112
23.736,8.008
23.74,7.892
23.744,7.972
23.748,8.08
23.752,8.036
23.756,7.92
23.76,7.964
23.764,8.084
23.768,8.036
23.772,7.916
23.776,7.932
23.78,8.056
23.784,8.044
23.788,7.94
23.792,7.908
23.796,8.048
23.8,8.052
23.804,7.92
23.808,7.884
23.812,8.02
23.816,8.068
23.82,7.956
23.824,7.888
23.828,7.972
23.832,8.04
23.836,7.964
23.84,7.88
23.844,8.012
23.848,8.084
23.852,8.016
23.856,7.896
23.86,7.932
23.864,8.064
23.868,8.036
23.872,7.912
23.876,7.952
23.88,8.068
23.884,8.06
23.888,7.944
23.892,7.892
23.896,8.02
23.9,8.032
23.904,7.932
23.908,7.884
23.912,7.984
23.916,8.068
23.92,7.948
23.924,7.9
23.928,7.996
23.932,8.048
23.936,7.96
23.94,7.904
23.944,7.944
23.948,8.052
23.952,7.968
23.956,7.848
23.96,7.9
23.964,8.04
23.968,7.984
23.972,7.884
23.976,7.88
23.98,8.024
23.984,8
23.988,7.888
23.992,7.892
23.996,8.012
24,8.012
24.004,7.888
24.008,7.824
24.012,7.976
24.016,8.068
24.02,7.928
24.024,7.824
24.028,7.948
24.032,8.02
24.036,7.932
24.04,7.816
24.044,7.936
24.048,8.012
24.052,7.952
24.056,7.828
24.06,7.88
24.064,8.012
24.068,7.972
24.072,7.848
24.076,7.856
24.08,7.992
24.084,7.984
24.088,7.852
24.092,7.832
24.096,7.968
24.1,7.992
24.104,7.88
24.108,7.816
24.112,7.932
24.116,8.004
24.12,7.94
24.124,7.912
24.128,8.016
24.132,8.104
24.136,7.996
24.14,7.912
24.144,8.012
24.148,8.124
24.152,8.016
24.156,7.924
24.16,7.968
24.164,8.072
24.168,8.048
24.172,7.9
24.176,7.852
24.18,7.96
24.184,7.984
24.188,7.872
24.192,7.8
24.196,7.916
24.2,7.912
24.204,7.78
24.208,7.756
24.212,7.884
24.216,7.9
24.22,7.78
24.224,7.72
24.228,7.84
24.232,7.92
24.236,7.816
24.24,7.732
24.244,7.8
24.248,7.908
24.252,7.852
24.256,7.756
24.26,7.812
24.264,7.928
24.268,7.848
24.272,7.668
24.276,7.644
24.28,7.808
24.284,8.012
24.288,8.192
24.292,8.684
24.296,9.524
24.3,10.2
24.304,10.412
24.308,10.088
24.312,9.648
24.316,8.972
24.32,8.36
24.324,8.092
24.328,8.136
24.332,8.156
24.336,8.056
24.34,7.984
24.344,8.036
24.348,8.092
24.352,8.02
24.356,7.916
24.36,7.932
24.364,8.024
24.368,8.004
24.372,7.888
24.376,7.892
24.38,8.032
24.384,8.044
24.388,7.908
24.392,7.908
24.396,8.032
24.4,8.06
24.404,7.96
24.408,7.936
24.412,8.056
24.416,8.084
24.42,7.992
24.424,7.952
24.428,8.028
24.432,8.108
24.436,8.02
24.44,7.952
24.444,8.02
24.448,8.156
24.452,8.076
24.456,7.988
24.46,8.008
24.464,8.132
24.468,8.12
24.472,8.008
24.476,8.024
24.48,8.156
24.484,8.172
24.488,8.068
24.492,8.056
24.496,8.16
24.5,8.228
24.504,8.1
24.508,8.08
24.512,8.208
24.516,8.272
24.52,8.192
24.524,8.116
24.528,8.244
24.532,8.324
24.536,8.284
24.54,8.216
24.544,8.296
24.548,8.436
24.552,8.372
24.556,8.332
24.56,8.412
24.564,8.54
24.568,8.54
24.572,8.48
24.576,8.492
24.58,8.664
24.584,8.684
24.588,8.612
24.592,8.628
24.596,8.776
24.6,8.848
24.604,8.72
24.608,8.716
24.612,8.852
24.616,8.944
24.62,8.84
24.624,8.772
24.628,8.864
24.632,8.936
24.636,8.86
24.64,8.776
24.644,8.832
24.648,8.896
24.652,8.784
24.656,8.648
24.66,8.672
24.664,8.752
24.668,8.68
24.672,8.512
24.676,8.488
24.68,8.552
24.684,8.5
24.688,8.364
24.692,8.276
24.696,8.372
24.7,8.388
24.704,8.24
24.708,8.152
24.712,8.224
24.716,8.248
24.72,8.144
24.724,8.056
24.728,8.176
24.732,8.204
24.736,8.108
24.74,8
24.744,8.084
24.748,8.192
24.752,8.12
24.756,8.012
24.76,8.044
24.764,8.16
24.768,8.132
24.772,8.016
24.776,8
24.78,8.12
24.784,8.128
24.788,8.004
24.792,7.96
24.796,8.12
24.8,8.152
24.804,8.028
24.808,7.968
24.812,8.108
24.816,8.176
24.82,8.056
24.824,7.996
24.828,8.092
24.832,8.168
24.836,8.116
24.84,8.02
24.844,8.076
24.848,8.176
24.852,8.104
24.856,8.036
24.86,8.088
24.864,8.164
24.868,8.132
24.872,8.012
24.876,8.032
24.88,8.16
24.884,8.16
24.888,8.02
24.892,7.98
24.896,8.116
24.9,8.148
24.904,8.024
24.908,7.976
24.912,8.108
24.916,8.128
24.92,8.04
24.924,7.944
24.928,8.072
24.932,8.136
24.936,8.056
24.94,7.936
24.944,8.024
24.948,8.12
24.952,8.024
24.956,7.936
24.96,7.98
24.964,8.1
24.968,8.08
24.972,7.948
24.976,7.948
24.98,8.076
24.984,8.088
24.988,7.972
24.992,7.944
24.996,8.024
25,8.076
25.004,7.968
25.008,7.912
25.012,8.008
25.016,8.068
25.02,7.952
25.024,7.88
25.028,7.988
25.032,8.076
25.036,7.976
25.04,7.892
25.044,7.964
25.048,8.068
25.052,8.028
25.056,7.892
25.06,7.928
25.064,8.052
25.068,8.036
25.072,7.88
25.076,7.912
25.08,8.04
25.084,8.016
25.088,7.908
25.092,7.868
25.096,8.02
25.1,8.04
25.104,7.928
25.108,7.86
25.112,7.992
25.116,8.056
25.12,7.948
25.124,7.864
25.128,7.948
25.132,8.032
25.136,7.96
25.14,7.88
25.144,7.944
25.148,8.024
25.152,7.988
25.156,7.872
25.16,7.888
25.164,8.016
25.168,8.004
25.172,7.888
25.176,7.88
25.18,8.008
25.184,8.004
25.188,7.908
25.192,7.868
25.196,8.004
25.2,8.036
25.204,7.912
25.208,7.872
25.212,7.992
25.216,8.06
25.22,7.936
25.224,7.884
25.228,7.972
25.232,8.024
25.236,7.952
25.24,7.856
25.244,7.94
25.248,8.056
25.252,8
25.256,7.884
25.26,7.932
25.264,8.056
25.268,8.044
25.272,7.908
25.276,7.896
25.28,8.02
25.284,8.028
25.288,7.932
25.292,7.864
25.296,8.024
25.3,8.044
25.304,7.948
25.308,7.932
25.312,8.08
25.316,8.148
25.32,8.052
25.324,8.024
25.328,8.104
25.332,8.192
25.336,8.112
25.34,8.032
25.344,8.088
25.348,8.2
25.352,8.14
25.356,8.028
25.36,8.06
25.364,8.164
25.368,8.08
25.372,7.98
25.376,7.976
25.38,8.056
25.384,8.064
25.388,7.916
25.392,7.876
25.396,8.004
25.4,8.036
25.404,7.884
25.408,7.812
25.412,7.908
25.416,7.984
25.42,7.872
25.424,7.784
25.428,7.892
25.432,7.98
25.436,7.908
25.44,7.84
25.444,7.896
25.448,7.988
25.452,7.944
25.456,7.832
25.46,7.832
25.464,7.888
25.468,7.824
25.472,7.784
25.476,8.004
25.48,8.46
25.484,8.988
25.488,9.572
25.492,10.152
25.496,10.476
25.5,10.232
25.504,9.46
25.508,8.704
25.512,8.376
25.516,8.276
25.52,8.124
25.524,8.016
25.528,8.1
25.532,8.208
25.536,8.12
25.54,7.98
25.544,8.004
25.548,8.124
25.552,8.036
25.556,7.924
25.56,7.964
25.564,8.064
25.568,8.064
25.572,7.932
25.576,7.904
25.58,8.056
25.584,8.04
25.588,7.956
25.592,7.936
25.596,8.048
25.6,8.1
25.604,7.984
25.608,7.948
25.612,8.052
25.616,8.124
25.62,8.032
25.624,7.936
25.628,8.024
25.632,8.152
25.636,8.08
25.64,7.968
25.644,8.068
25.648,8.152
25.652,8.12
25.656,8
25.66,8.048
25.664,8.18
25.668,8.148
25.672,8.04
25.676,8.048
25.68,8.184
25.684,8.212
25.688,8.096
25.692,8.084
25.696,8.216
25.7,8.288
25.704,8.168
25.708,8.096
25.712,8.244
25.716,8.324
25.72,8.224
25.724,8.156
25.728,8.268
25.732,8.38
25.736,8.344
25.74,8.264
25.744,8.34
25.748,8.476
25.752,8.468
25.756,8.36
25.76,8.468
25.764,8.588
25.768,8.608
25.772,8.512
25.776,8.544
25.78,8.7
25.784,8.76
25.788,8.652
25.792,8.652
25.796,8.808
25.8,8.872
25.804,8.78
25.808,8.748
25.812,8.88
25.816,8.952
25.82,8.796
25.824,8.74
25.828,8.848
25.832,8.948
25.836,8.844
25.84,8.74
25.844,8.764
25.848,8.82
25.852,8.716
25.856,8.54
25.86,8.52
25.864,8.604
25.868,8.536
25.872,8.388
25.876,8.284
25.88,8.368
25.884,8.344
25.888,8.192
25.892,8.172
25.896,8.216
25.9,8.232
25.904,8.08
25.908,8.024
25.912,8.128
25.916,8.144
25.92,8.048
25.924,8.024
25.928,8.064
25.932,8.104
25.936,8.012
25.94,7.924
25.944,7.98
25.948,8.06
25.952,8.012
25.956,7.904
25.96,7.948
25.964,8.068
25.968,8.032
25.972,7.864
25.976,7.868
25.98,8.008
25.984,8.016
25.988,7.924
25.992,7.928
25.996,8.14
26,8.272
26.004,8.192
26.008,8.064
26.012,8.224
26.016,8.34
26.02,8.256
26.024,8.14
26.028,8.184
26.032,8.284
26.036,8.208
26.04,8.136
26.044,8.176
26.048,8.28
26.052,8.204
26.056,8.064
26.06,8.104
26.064,8.192
26.068,8.184
26.072,8.036
26.076,8.032
26.08,8.172
26.084,8.176
26.088,8.044
26.092,7.984
26.096,8.124
26.1,8.136
26.104,8.032
26.108,8
26.112,8.1
26.116,8.16
26.12,8.076
26.124,7.964
26.128,8.068
26.132,8.22
26.136,8.132
26.14,7.992
26.144,8
26.148,8.152
26.152,8.124
26.156,7.936
26.16,7.9
26.164,8.124
26.168,8.08
26.172,7.96
26.176,7.964
26.18,8.068
26.184,8.064
26.188,7.94
26.192,7.9
26.196,8.032
26.2,8.164
26.204,8.02
26.208,8.024
26.212,8.132
26.216,8.264
26.22,8.188
26.224,8.02
26.228,8.02
26.232,8.068
26.236,7.988
26.24,7.916
26.244,7.972
26.248,8.084
26.252,8.036
26.256,7.936
26.26,7.98
26.264,8.12
26.268,8.096
26.272,7.956
26.276,7.952
26.28,8.108
26.284,8.112
26.288,8
26.292,7.944
26.296,8.084
26.3,8.136
26.304,8.192
26.308,8.184
26.312,8.208
26.316,8.18
26.32,8.032
26.324,7.888
26.328,7.996
26.332,8.196
26.336,8.156
26.34,7.984
26.344,7.972
26.348,8.096
26.352,8.048
26.356,7.964
26.36,7.992
26.364,8.136
26.368,8.136
26.372,7.996
26.376,8.02
26.38,8.148
26.384,8.16
26.388,8.048
26.392,8.028
26.396,8.188
26.4,8.228
26.404,8.168
26.408,8.272
26.412,8.284
26.416,8.224
26.42,8.028
26.424,7.964
26.428,8.036
26.432,8.16
26.436,8.096
26.44,7.964
26.444,8.04
26.448,8.2
26.452,8.184
26.456,8.136
26.46,8.132
26.464,8.248
26.468,8.26
26.472,8.092
26.476,8.052
26.48,8.192
26.484,8.252
26.488,8.18
26.492,8.16
26.496,8.252
26.5,8.32
26.504,8.272
26.508,8.216
26.512,8.28
26.516,8.352
26.52,8.272
26.524,8.184
26.528,8.288
26.532,8.384
26.536,8.44
26.54,8.276
26.544,8.292
26.548,8.256
26.552,8.152
26.556,8.036
26.56,8.076
26.564,8.196
26.568,8.188
26.572,8.076
26.576,8.032
26.58,8.172
26.584,8.184
26.588,8.076
26.592,8.028
26.596,8.144
26.6,8.236
26.604,8.12
26.608,8.084
26.612,8.172
26.616,8.256
26.62,8.176
26.624,8.092
26.628,8.168
26.632,8.244
26.636,8.112
26.64,7.988
26.644,8.076
26.648,8.456
26.652,8.8
26.656,9.312
26.66,10.036
26.664,10.7
26.668,10.856
26.672,10.492
26.676,9.776
26.68,9.256
26.684,8.84
26.688,8.572
26.692,8.42
26.696,8.48
26.7,8.512
26.704,8.404
26.708,8.296
26.712,8.376
26.716,8.432
26.72,8.276
26.724,8.188
26.728,8.328
26.732,8.404
26.736,8.304
26.74,8.148
26.744,8.26
26.748,8.356
26.752,8.352
26.756,8.248
26.76,8.268
26.764,8.336
26.768,8.316
26.772,8.228
26.776,8.284
26.78,8.356
26.784,8.348
26.788,8.256
26.792,8.188
26.796,8.336
26.8,8.448
26.804,8.3
26.808,8.188
26.812,8.288
26.816,8.388
26.82,8.328
26.824,8.288
26.828,8.372
26.832,8.544
26.836,8.504
26.84,8.296
26.844,8.304
26.848,8.4
26.852,8.376
26.856,8.26
26.86,8.344
26.864,8.484
26.868,8.452
26.872,8.332
26.876,8.316
26.88,8.476
26.884,8.528
26.888,8.408
26.892,8.404
26.896,8.552
26.9,8.608
26.904,8.548
26.908,8.468
26.912,8.604
26.916,8.704
26.92,8.644
26.924,8.596
26.928,8.736
26.932,8.864
26.936,8.804
26.94,8.72
26.944,8.824
26.948,9.008
26.952,9.028
26.956,8.964
26.96,9
26.964,9.112
26.968,9.124
26.972,9.04
26.976,8.988
26.98,9.1
26.984,9.136
26.988,9.064
26.992,9.032
26.996,9.156
27,9.188
27.004,9.064
27.008,8.96
27.012,9.068
27.016,9.124
27.02,9.012
27.024,8.872
27.028,8.908
27.032,8.948
27.036,8.836
27.04,8.696
27.044,8.66
27.048,8.748
27.052,8.668
27.056,8.524
27.06,8.468
27.064,8.572
27.068,8.524
27.072,8.368
27.076,8.328
27.08,8.44
27.084,8.448
27.088,8.316
27.092,8.22
27.096,8.356
27.1,8.348
27.104,8.244
27.108,8.172
27.112,8.248
27.116,8.332
27.12,8.24
27.124,8.152
27.128,8.244
27.132,8.348
27.136,8.268
27.14,8.16
27.144,8.188
27.148,8.3
27.152,8.264
27.156,8.188
27.16,8.212
27.164,8.316
27.168,8.312
27.172,8.168
27.176,8.156
27.18,8.34
27.184,8.392
27.188,8.232
27.192,8.168
27.196,8.3
27.2,8.348
27.204,8.244
27.208,8.192
27.212,8.296
27.216,8.376
27.22,8.264
27.224,8.204
27.228,8.272
27.232,8.388
27.236,8.296
27.24,8.224
27.244,8.232
27.248,8.336
27.252,8.316
27.256,8.192
27.26,8.228
27.264,8.344
27.268,8.308
27.272,8.188
27.276,8.176
27.28,8.308
27.284,8.32
27.288,8.184
27.292,8.132
27.296,8.236
27.3,8.288
27.304,8.216
27.308,8.192
27.312,8.296
27.316,8.356
27.32,8.216
27.324,8.076
27.328,8.16
27.332,8.272
27.336,8.196
27.34,8.116
27.344,8.156
27.348,8.268
27.352,8.24
27.356,8.108
27.36,8.144
27.364,8.26
27.368,8.28
27.372,8.288
27.376,8.18
27.38,8.28
27.384,8.236
27.388,8.12
27.392,8.064
27.396,8.22
27.4,8.3
27.404,8.168
27.408,8.104
27.412,8.216
27.416,8.284
27.42,8.208
27.424,8.136
27.428,8.192
27.432,8.324
27.436,8.232
27.44,8.128
27.444,8.176
27.448,8.308
27.452,8.296
27.456,8.152
27.46,8.128
27.464,8.28
27.468,8.296
27.472,8.204
27.476,8.12
27.48,8.228
27.484,8.344
27.488,8.216
27.492,8.096
27.496,8.28
27.5,8.312
27.504,8.2
27.508,8.112
27.512,8.236
27.516,8.32
27.52,8.308
27.524,8.164
27.528,8.184
27.532,8.284
27.536,8.288
27.54,8.156
27.544,8.192
27.548,8.3
27.552,8.252
27.556,8.104
27.56,8.092
27.564,8.264
27.568,8.268
27.572,8.192
27.576,8.148
27.58,8.248
27.584,8.328
27.588,8.248
27.592,8.268
27.596,8.304
27.6,8.272
27.604,8.18
27.608,8.08
27.612,8.164
27.616,8.264
27.62,8.212
27.624,8.116
27.628,8.156
27.632,8.284
27.636,8.236
27.64,8.132
27.644,8.172
27.648,8.284
27.652,8.232
27.656,8.12
27.66,8.148
27.664,8.328
27.668,8.352
27.672,8.348
27.676,8.36
27.68,8.528
27.684,8.588
27.688,8.448
27.692,8.184
27.696,8.248
27.7,8.352
27.704,8.28
27.708,8.224
27.712,8.32
27.716,8.416
27.72,8.348
27.724,8.236
27.728,8.26
27.732,8.352
27.736,8.308
27.74,8.192
27.744,8.228
27.748,8.324
27.752,8.28
27.756,8.104
27.76,8.136
27.764,8.256
27.768,8.228
27.772,8.124
27.776,8.072
27.78,8.192
27.784,8.228
27.788,8.116
27.792,8.052
27.796,8.196
27.8,8.216
27.804,8.12
27.808,8.04
27.812,8.164
27.816,8.264
27.82,8.14
27.824,7.984
27.828,8.004
27.832,8.1
27.836,8.224
27.84,8.36
27.844,8.804
27.848,9.588
27.852,10.26
27.856,10.636
27.86,10.516
27.864,10.192
27.868,9.396
27.872,8.7
27.876,8.408
27.88,8.448
27.884,8.416
27.888,8.264
27.892,8.204
27.896,8.364
27.9,8.38
27.904,8.22
27.908,8.156
27.912,8.236
27.916,8.308
27.92,8.224
27.924,8.132
27.928,8.196
27.932,8.316
27.936,8.252
27.94,8.148
27.944,8.188
27.948,8.308
27.952,8.272
27.956,8.16
27.96,8.164
27.964,8.332
27.968,8.34
27.972,8.2
27.976,8.268
27.98,8.356
27.984,8.312
27.988,8.172
27.992,8.176
27.996,8.356
28,8.404
28.004,8.248
28.008,8.168
28.012,8.232
28.016,8.332
28.02,8.264
28.024,8.192
28.028,8.264
28.032,8.396
28.036,8.32
28.04,8.224
28.044,8.284
28.048,8.404
28.052,8.412
28.056,8.288
28.06,8.3
28.064,8.46
28.068,8.472
28.072,8.36
28.076,8.352
28.08,8.496
28.084,8.524
28.088,8.42
28.092,8.38
28.096,8.544
28.1,8.628
28.104,8.528
28.108,8.468
28.112,8.612
28.116,8.72
28.12,8.684
28.124,8.596
28.128,8.728
28.132,8.888
28.136,8.86
28.14,8.776
28.144,8.856
28.148,9.072
28.152,9.036
28.156,8.896
28.16,8.876
28.164,8.98
28.168,9.032
28.172,8.944
28.176,8.928
28.18,9.068
28.184,9.104
28.188,8.996
28.192,8.924
28.196,9.032
28.2,9.072
28.204,8.944
28.208,8.848
28.212,8.884
28.216,8.944
28.22,8.82
28.224,8.692
28.228,8.712
28.232,8.764
28.236,8.644
28.24,8.492
28.244,8.472
28.248,8.592
28.252,8.532
28.256,8.38
28.26,8.304
28.264,8.44
28.268,8.448
28.272,8.268
28.276,8.256
28.28,8.316
28.284,8.364
28.288,8.252
28.292,8.168
28.296,8.32
28.3,8.348
28.304,8.2
28.308,8.132
28.312,8.216
28.316,8.236
28.32,8.12
28.324,8.044
28.328,8.144
28.332,8.26
28.336,8.2
28.34,8.084
28.344,8.112
28.348,8.264
28.352,8.24
28.356,8.116
28.36,8.116
28.364,8.264
28.368,8.272
28.372,8.144
28.376,8.16
28.38,8.316
28.384,8.292
28.388,8.172
28.392,8.124
28.396,8.288
28.4,8.364
28.404,8.26
28.408,8.112
28.412,8.128
28.416,8.244
28.42,8.176
28.424,8.072
28.428,8.164
28.432,8.308
28.436,8.22
28.44,8.096
28.444,8.116
28.448,8.244
28.452,8.208
28.456,8.092
28.46,8.136
28.464,8.26
28.468,8.272
28.472,8.136
28.476,8.104
28.48,8.228
28.484,8.292
28.488,8.156
28.492,8.124
28.496,8.192
28.5,8.268
28.504,8.176
28.508,8.068
28.512,8.164
28.516,8.26
28.52,8.156
28.524,8.064
28.528,8.188
28.532,8.316
28.536,8.204
28.54,8
28.544,8.036
28.548,8.208
28.552,8.18
28.556,8.036
28.56,8
28.564,8.148
28.568,8.168
28.572,8.064
28.576,8.024
28.58,8.14
28.584,8.192
28.588,8.084
28.592,8.012
28.596,8.152
28.6,8.304
28.604,8.164
28.608,7.992
28.612,8.048
28.616,8.212
28.62,8.148
28.624,8.088
28.628,8.12
28.632,8.188
28.636,8.124
28.64,8.048
28.644,8.044
28.648,8.168
28.652,8.1
28.656,7.988
28.66,8.008
28.664,8.1
28.668,8.14
28.672,8.036
28.676,7.992
28.68,8.14
28.684,8.192
28.688,8.048
28.692,8.044
28.696,8.224
28.7,8.324
28.704,8.244
28.708,7.976
28.712,7.976
28.716,8.108
28.72,8.072
28.724,7.948
28.728,8.044
28.732,8.156
28.736,8.068
28.74,7.984
28.744,7.98
28.748,8.128
28.752,8.1
28.756,8.008
28.76,8.02
28.764,8.14
28.768,8.18
28.772,8.024
28.776,7.996
28.78,8.144
28.784,8.188
28.788,8.044
28.792,8.02
28.796,8.164
28.8,8.26
28.804,8.248
28.808,8.036
28.812,8.056
28.816,8.164
28.82,8.056
28.824,8.02
28.828,8.068
28.832,8.116
28.836,8.04
28.84,7.96
28.844,7.992
28.848,8.136
28.852,8.12
28.856,8.016
28.86,8.012
28.864,8.16
28.868,8.216
28.872,8.172
28.876,8.152
28.88,8.244
28.884,8.288
28.888,8.204
28.892,8.164
28.896,8.288
28.9,8.328
28.904,8.248
28.908,8.216
28.912,8.232
28.916,8.3
28.92,8.236
28.924,8.132
28.928,8.184
28.932,8.356
28.936,8.204
28.94,8
28.944,7.988
28.948,8.1
28.952,8.088
28.956,7.972
28.96,7.952
28.964,8.06
28.968,8.076
28.972,7.944
28.976,7.916
28.98,8.024
28.984,8.076
28.988,7.964
28.992,7.956
28.996,8.012
29,8.144
29.004,8.084
29.008,7.908
29.012,7.952
29.016,8.028
29.02,7.884
29.024,7.74
29.028,7.808
29.032,8.036
29.036,8.228
29.04,8.476
29.044,9.08
29.048,9.936
29.052,10.456
29.056,10.388
29.06,10.024
29.064,9.408
29.068,8.804
29.072,8.36
29.076,8.184
29.08,8.228
29.084,8.232
29.088,8.148
29.092,8.092
29.096,8.164
29.1,8.192
29.104,8.036
29.108,7.972
29.112,8.072
29.116,8.14
29.12,8.076
29.124,7.944
29.128,8.056
29.132,8.268
29.136,8.232
29.14,7.948
29.144,7.884
29.148,8.064
29.152,8.084
29.156,7.984
29.16,8.008
29.164,8.12
29.168,8.132
29.172,8.04
29.176,7.976
29.18,8.124
29.184,8.16
29.188,8.06
29.192,8
29.196,8.1
29.2,8.192
29.204,8.08
29.208,8.008
29.212,8.12
29.216,8.224
29.22,8.164
29.224,8.048
29.228,8.092
29.232,8.244
29.236,8.188
29.24,8.08
29.244,8.1
29.248,8.244
29.252,8.24
29.256,8.148
29.26,8.14
29.264,8.288
29.268,8.34
29.272,8.256
29.276,8.192
29.28,8.336
29.284,8.4
29.288,8.316
29.292,8.272
29.296,8.4
29.3,8.496
29.304,8.476
29.308,8.428
29.312,8.484
29.316,8.608
29.32,8.532
29.324,8.484
29.328,8.58
29.332,8.74
29.336,8.732
29.34,8.628
29.344,8.688
29.348,8.86
29.352,8.884
29.356,8.768
29.36,8.796
29.364,8.964
29.368,8.988
29.372,8.908
29.376,8.852
29.38,8.952
29.384,9.016
29.388,8.888
29.392,8.832
29.396,8.988
29.4,9.052
29.404,8.808
29.408,8.8
29.412,8.848
29.416,8.8
29.42,8.612
29.424,8.468
29.428,8.492
29.432,8.56
29.436,8.504
29.44,8.336
29.444,8.316
29.448,8.4
29.452,8.36
29.456,8.22
29.46,8.172
29.464,8.264
29.468,8.28
29.472,8.136
29.476,8.072
29.48,8.204
29.484,8.236
29.488,8.116
29.492,8.052
29.496,8.116
29.5,8.176
29.504,8.144
29.508,8.076
29.512,8.12
29.516,8.168
29.52,8.08
29.524,8.004
29.528,8.016
29.532,8.156
29.536,8.16
29.54,8.108
29.544,8.084
29.548,8.176
29.552,8.156
29.556,8.004
29.56,7.992
29.564,8.192
29.568,8.164
29.572,8.012
29.576,7.98
29.58,8.136
29.584,8.192
29.588,8.104
29.592,8.044
29.596,8.144
29.6,8.208
29.604,8.108
29.608,8.036
29.612,8.116
29.616,8.168
29.62,8.108
29.624,8.024
29.628,8.1
29.632,8.184
29.636,8.2
29.64,8.076
29.644,8.028
29.648,8.152
29.652,8.16
29.656,8.008
29.66,8.064
29.664,8.2
29.668,8.204
29.672,8.06
29.676,8.016
29.68,8.104
29.684,8.144
29.688,8.016
29.692,7.956
29.696,8.128
29.7,8.22
29.704,8.056
29.708,7.92
29.712,8.044
29.716,8.164
29.72,8.048
29.724,7.944
29.728,8.004
29.732,8.148
29.736,8.088
29.74,7.948
29.744,7.904
29.748,8.048
29.752,8.06
29.756,7.988
29.76,7.968
29.764,8.112
29.768,8.1
29.772,7.992
29.776,7.952
29.78,8.124
29.784,8.136
29.788,7.996
29.792,7.916
29.796,7.972
29.8,8.084
29.804,8.024
29.808,7.936
29.812,8.032
29.816,8.184
29.82,8.108
29.824,8.012
29.828,8.004
29.832,8.076
29.836,8.06
29.84,7.948
29.844,7.912
29.848,8.048
29.852,8.044
29.856,7.956
29.86,7.944
29.864,8.096
29.868,8.104
29.872,7.988
29.876,7.952
29.88,8.152
29.884,8.196
29.888,8.072
29.892,7.92
29.896,8.024
29.9,8.104
29.904,8.036
29.908,7.98
29.912,8.02
29.916,8.084
29.92,8.072
29.924,7.996
29.928,7.988
29.932,8.128
29.936,8.084
29.94,7.976
29.944,7.96
29.948,8.128
29.952,8.188
29.956,8.008
29.96,7.928
29.964,8.104
29.968,8.136
29.972,8.032
29.976,7.996
29.98,8.08
29.984,8.156
29.988,8.08
29.992,7.98
29.996,8.204
30,8.252
30.004,8.132
30.008,7.932
30.012,7.976
30.016,8.096
30.02,8.052
30.024,7.912
30.028,7.988
30.032,8.104
30.036,8.156
30.04,8.048
30.044,8.084
30.048,8.236
30.052,8.236
30.056,8.148
30.06,8.084
30.064,8.216
30.068,8.28
30.072,8.188
30.076,8.168
30.08,8.344
30.084,8.408
30.088,8.216
30.092,8.068
30.096,8.168
30.1,8.224
30.104,8.096
30.108,8.024
30.112,8.044
30.116,8.152
30.12,8.06
30.124,7.96
30.128,8.044
30.132,8.176
30.136,8.112
30.14,7.94
30.144,7.908
30.148,8.076
30.152,8.124
30.156,7.964
30.16,7.888
30.164,8.048
30.168,8.072
30.172,7.944
30.176,7.952
30.18,8.124
30.184,8.104
30.188,7.992
30.192,7.868
30.196,7.908
30.2,7.98
30.204,7.924
30.208,8.056
30.212,8.356
30.216,8.868
30.22,9.536
30.224,10.212
30.228,10.648
30.232,10.632
30.236,10.132
30.24,9.304
30.244,8.684
30.248,8.504
30.252,8.448
30.256,8.248
30.26,8.152
30.264,8.276
30.268,8.328
30.272,8.192
30.276,8.1
30.28,8.216
30.284,8.256
30.288,8.168
30.292,8.06
30.296,8.14
30.3,8.224
30.304,8.152
30.308,8.044
30.312,8.192
30.316,8.3
30.32,8.176
30.324,8.032
30.328,8.112
30.332,8.232
30.336,8.192
30.34,8.064
30.344,8.06
30.348,8.2
30.352,8.28
30.356,8.188
30.36,8.108
30.364,8.208
30.368,8.24
30.372,8.096
30.376,8.096
30.38,8.332
30.384,8.34
30.388,8.176
30.392,8.092
30.396,8.228
30.4,8.308
30.404,8.248
30.408,8.16
30.412,8.228
30.416,8.364
30.42,8.344
30.424,8.224
30.428,8.264
30.432,8.372
30.436,8.336
30.44,8.252
30.444,8.232
30.448,8.392
30.452,8.416
30.456,8.284
30.46,8.308
30.464,8.488
30.468,8.556
30.472,8.432
30.476,8.352
30.48,8.508
30.484,8.596
30.488,8.532
30.492,8.484
30.496,8.712
30.5,8.82
30.504,8.684
30.508,8.656
30.512,8.664
30.516,8.836
30.52,8.796
30.524,8.748
30.528,8.828
30.532,8.976
30.536,8.936
30.54,8.924
30.544,8.892
30.548,9.008
30.552,9.02
30.556,8.904
30.56,8.876
30.564,8.992
30.568,9.004
30.572,8.88
30.576,8.784
30.58,8.924
30.584,8.92
30.588,8.74
30.592,8.624
30.596,8.672
30.6,8.708
30.604,8.604
30.608,8.444
30.612,8.476
30.616,8.532
30.62,8.436
30.624,8.276
30.628,8.26
30.632,8.336
30.636,8.312
30.64,8.168
30.644,8.136
30.648,8.292
30.652,8.264
30.656,8.104
30.66,8.048
30.664,8.192
30.668,8.24
30.672,8.108
30.676,8.028
30.68,8.132
30.684,8.18
30.688,8.096
30.692,7.996
30.696,8.096
30.7,8.18
30.704,8.116
30.708,8.016
30.712,8.064
30.716,8.164
30.72,8.104
30.724,8.024
30.728,8.056
30.732,8.18
30.736,8.152
30.74,8.02
30.744,8.032
30.748,8.18
30.752,8.192
30.756,8.072
30.76,8.02
30.764,8.18
30.768,8.212
30.772,8.088
30.776,8.044
30.78,8.156
30.784,8.196
30.788,8.104
30.792,8.056
30.796,8.132
30.8,8.228
30.804,8.16
30.808,8.056
30.812,8.08
30.816,8.22
30.82,8.18
30.824,8.072
30.828,8.124
30.832,8.156
30.836,8.168
30.84,8.024
30.844,8.012
30.848,8.16
30.852,8.168
30.856,8.052
30.86,8.032
30.864,8.16
30.868,8.184
30.872,8.08
30.876,8.052
30.88,8.168
30.884,8.196
30.888,8.068
30.892,7.96
30.896,8.056
30.9,8.16
30.904,8.088
30.908,7.996
30.912,8.044
30.916,8.192
30.92,8.12
30.924,8
30.928,8.044
30.932,8.176
30.936,8.148
30.94,8.016
30.944,8.008
30.948,8.152
30.952,8.172
30.956,8.048
30.96,8.004
30.964,8.136
30.968,8.152
30.972,8.068
30.976,7.968
30.98,8.1
30.984,8.164
30.988,8.064
30.992,8.004
30.996,8.068
31,8.16
31.004,8.076
31.008,7.988
31.012,8.052
31.016,8.168
31.02,8.124
31.024,7.988
31.028,7.992
31.032,8.152
31.036,8.12
31.04,8
31.044,8
31.048,8.124
31.052,8.124
31.056,8.124
31.06,8.004
31.064,8.088
31.068,8.116
31.072,8.02
31.076,7.972
31.08,8.092
31.084,8.192
31.088,8.06
31.092,8.012
31.096,8.124
31.1,8.184
31.104,8.104
31.108,8
31.112,8.052
31.116,8.18
31.12,8.152
31.124,8.044
31.128,8.048
31.132,8.168
31.136,8.176
31.14,8.04
31.144,8.06
31.148,8.168
31.152,8.176
31.156,8.036
31.16,8.012
31.164,8.164
31.168,8.172
31.172,8.06
31.176,7.98
31.18,8.108
31.184,8.224
31.188,8.212
31.192,8.032
31.196,8.08
31.2,8.144
31.204,8.108
31.208,8
31.212,8.052
31.216,8.164
31.22,8.132
31.224,8.028
31.228,8.084
31.232,8.268
31.236,8.264
31.24,8.172
31.244,8.152
31.248,8.284
31.252,8.308
31.256,8.188
31.26,8.184
31.264,8.292
31.268,8.34
31.272,8.22
31.276,8.14
31.28,8.224
31.284,8.304
31.288,8.156
31.292,8.048
31.296,8.184
31.3,8.252
31.304,8.124
31.308,7.972
31.312,8.048
31.316,8.152
31.32,8.112
31.324,7.952
31.328,7.96
31.332,8.096
31.336,8.084
31.34,7.976
31.344,7.94
31.348,7.864
31.352,8.108
31.356,7.996
31.36,7.92
31.364,8.012
31.368,8.08
31.372,7.98
31.376,7.92
31.38,8.028
31.384,8.004
31.388,7.86
31.392,7.828
31.396,8.108
31.4,8.484
31.404,8.856
31.408,9.448
31.412,10.16
31.416,10.636
31.42,10.408
31.424,9.788
31.428,9.04
31.432,8.612
31.436,8.368
31.44,8.18
31.444,8.124
31.448,8.24
31.452,8.264
31.456,8.144
31.46,8.044
31.464,8.148
31.468,8.188
31.472,8.056
31.476,7.948
31.48,8.096
31.484,8.184
31.488,8.06
31.492,8.004
31.496,8.132
31.5,8.204
31.504,8.1
31.508,7.96
31.512,8.008
31.516,8.136
31.52,8.112
31.524,7.992
31.528,8.02
31.532,8.184
31.536,8.148
31.54,8.052
31.544,8.024
31.548,8.144
31.552,8.192
31.556,8.068
31.56,7.98
31.564,8.132
31.568,8.192
31.572,8.108
31.576,8.024
31.58,8.124
31.584,8.208
31.588,8.104
31.592,8.04
31.596,8.16
31.6,8.244
31.604,8.14
31.608,8.06
31.612,8.116
31.616,8.248
31.62,8.204
31.624,8.1
31.628,8.136
31.632,8.264
31.636,8.256
31.64,8.184
31.644,8.156
31.648,8.308
31.652,8.332
31.656,8.248
31.66,8.232
31.664,8.396
31.668,8.448
31.672,8.368
31.676,8.32
31.68,8.512
31.684,8.624
31.688,8.56
31.692,8.496
31.696,8.588
31.7,8.728
31.704,8.704
31.708,8.64
31.712,8.704
31.716,8.86
31.72,8.852
31.724,8.776
31.728,8.8
31.732,8.94
31.736,8.932
31.74,8.808
31.744,8.812
31.748,8.932
31.752,8.952
31.756,8.812
31.76,8.764
31.764,8.872
31.768,8.896
31.772,8.748
31.776,8.62
31.78,8.664
31.784,8.668
31.788,8.548
31.792,8.416
31.796,8.452
31.8,8.484
31.804,8.368
31.808,8.224
31.812,8.232
31.816,8.348
31.82,8.28
31.824,8.12
31.828,8.112
31.832,8.232
31.836,8.204
31.84,8.064
31.844,8.024
31.848,8.152
31.852,8.16
31.856,8.036
31.86,7.996
31.864,8.108
31.868,8.152
31.872,8.056
31.876,8
31.88,8.072
31.884,8.144
31.888,8.056
31.892,7.948
31.896,8.032
31.9,8.144
31.904,8.064
31.908,7.968
31.912,8.008
31.916,8.136
31.92,8.1
31.924,7.968
31.928,7.976
31.932,8.12
31.936,8.124
31.94,7.984
31.944,7.952
31.948,8.112
31.952,8.156
31.956,8.044
31.96,7.984
31.964,8.132
31.968,8.16
31.972,8.064
31.976,7.996
31.98,8.096
31.984,8.164
31.988,8.092
31.992,7.992
31.996,8.08
32,8.164
32.004,8.112
32.008,8
32.012,8.036
32.016,8.14
32.02,8.1
32.024,7.964
32.028,7.964
32.032,8.128
32.036,8.096
32.04,7.976
32.044,7.952
32.048,8.092
32.052,8.108
32.056,7.976
32.06,7.928
32.064,8.064
32.068,8.096
32.072,7.976
32.076,7.908
32.08,8.036
32.084,8.096
32.088,8.008
32.092,7.936
32.096,8.012
32.1,8.1
32.104,8.024
32.108,7.936
32.112,7.976
32.116,8.112
32.12,8.064
32.124,7.932
32.128,7.96
32.132,8.112
32.136,8.1
32.14,8
32.144,7.972
32.148,8.068
32.152,8.116
32.156,7.988
32.16,7.98
32.164,8.108
32.168,8.1
32.172,7.976
32.176,7.9
32.18,8.02
32.184,8.088
32.188,8.008
32.192,7.92
32.196,7.988
32.2,8.124
32.204,8.036
32.208,7.924
32.212,7.98
32.216,8.072
32.22,8.092
32.224,7.964
32.228,7.968
32.232,8.072
32.236,8.076
32.24,7.972
32.244,7.948
32.248,8.052
32.252,8.104
32.256,7.988
32.26,7.948
32.264,8.052
32.268,8.076
32.272,7.992
32.276,7.956
32.28,8.084
32.284,8.148
32.288,8.068
32.292,7.968
32.296,8.048
32.3,8.108
32.304,8.02
32.308,7.94
32.312,7.944
32.316,8.088
32.32,8.08
32.324,7.944
32.328,7.956
32.332,8.084
32.336,8.048
32.34,7.96
32.344,7.912
32.348,8.052
32.352,8.092
32.356,7.988
32.36,7.916
32.364,8.032
32.368,8.092
32.372,7.984
32.376,7.916
32.38,8
32.384,8.088
32.388,7.98
32.392,7.904
32.396,7.936
32.4,8.048
32.404,7.964
32.408,7.884
32.412,7.952
32.416,8.112
32.42,8.096
32.424,7.976
32.428,7.98
32.432,8.12
32.436,8.12
32.44,8.012
32.444,7.964
32.448,8.1
32.452,8.148
32.456,8.024
32.46,7.96
32.464,8.052
32.468,8.056
32.472,7.936
32.476,7.86
32.48,7.952
32.484,8.012
32.488,7.864
32.492,7.748
32.496,7.828
32.5,7.916
32.504,7.848
32.508,7.708
32.512,7.748
32.516,7.836
32.52,7.784
32.524,7.684
32.528,7.664
32.532,7.776
32.536,7.812
32.54,7.704
32.544,7.68
32.548,7.84
32.552,7.864
32.556,7.736
32.56,7.676
32.564,7.76
32.568,7.776
32.572,7.608
32.576,7.616
32.58,7.964
32.584,8.4
32.588,8.932
32.592,9.592
32.596,10.244
32.6,10.56
32.604,10.228
32.608,9.424
32.612,8.784
32.616,8.448
32.62,8.268
32.624,8.064
32.628,7.98
32.632,8.088
32.636,8.116
32.64,7.96
32.644,7.872
32.648,7.976
32.652,7.996
32.656,7.852
32.66,7.78
32.664,7.884
32.668,7.944
32.672,7.864
32.676,7.772
32.68,7.864
32.684,7.952
32.688,7.86
32.692,7.776
32.696,7.852
32.7,7.972
32.704,7.908
32.708,7.816
32.712,7.836
32.716,7.988
32.72,7.94
32.724,7.84
32.728,7.828
32.732,7.968
32.736,7.984
32.74,7.892
32.744,7.84
32.748,7.964
32.752,8.02
32.756,7.9
32.76,7.892
32.764,7.996
32.768,8.004
32.772,7.964
32.776,7.92
32.78,7.996
32.784,8.052
32.788,7.972
32.792,7.892
32.796,7.968
32.8,8.092
32.804,8.064
32.808,7.96
32.812,7.996
32.816,8.152
32.82,8.116
32.824,8.02
32.828,8.064
32.832,8.184
32.836,8.22
32.84,8.1
32.844,8.124
32.848,8.272
32.852,8.316
32.856,8.228
32.86,8.196
32.864,8.36
32.868,8.468
32.872,8.404
32.876,8.336
32.88,8.444
32.884,8.584
32.888,8.556
32.892,8.484
32.896,8.572
32.9,8.692
32.904,8.672
32.908,8.604
32.912,8.628
32.916,8.796
32.92,8.764
32.924,8.652
32.928,8.656
32.932,8.768
32.936,8.756
32.94,8.62
32.944,8.576
32.948,8.66
32.952,8.664
32.956,8.512
32.96,8.416
32.964,8.476
32.968,8.5
32.972,8.352
32.976,8.22
32.98,8.268
32.984,8.296
32.988,8.156
32.992,8.012
32.996,8.076
33,8.14
33.004,8.02
33.008,7.888
33.012,7.904
33.016,8.024
33.02,8.004
33.024,7.864
33.028,7.864
33.032,7.944
33.036,7.948
33.04,7.828
33.044,7.784
33.048,7.904
33.052,7.94
33.056,7.808
33.06,7.764
33.064,7.884
33.068,7.92
33.072,7.84
33.076,7.76
33.08,7.844
33.084,7.932
33.088,7.848
33.092,7.764
33.096,7.828
33.1,7.908
33.104,7.888
33.108,7.784
33.112,7.792
33.116,7.92
33.12,7.924
33.124,7.804
33.128,7.804
33.132,7.956
33.136,7.948
33.14,7.832
33.144,7.8
33.148,7.92
33.152,7.96
33.156,7.88
33.16,7.812
33.164,7.916
33.168,7.988
33.172,7.88
33.176,7.796
33.18,7.888
33.184,7.956
33.188,7.912
33.192,7.788
33.196,7.856
33.2,7.964
33.204,7.888
33.208,7.792
33.212,7.804
33.216,7.916
33.22,7.904
33.224,7.78
33.228,7.772
33.232,7.892
33.236,7.892
33.24,7.78
33.244,7.732
33.248,7.888
33.252,7.884
33.256,7.788
33.26,7.712
33.264,7.852
33.268,7.904
33.272,7.808
33.276,7.732
33.28,7.824
33.284,7.9
33.288,7.84
33.292,7.724
33.296,7.788
33.3,7.916
33.304,7.844
33.308,7.736
33.312,7.76
33.316,7.88
33.32,7.864
33.324,7.752
33.328,7.724
33.332,7.852
33.336,7.856
33.34,7.772
33.344,7.744
33.348,7.864
33.352,7.86
33.356,7.768
33.36,7.708
33.364,7.824
33.368,7.896
33.372,7.788
33.376,7.728
33.38,7.784
33.384,7.888
33.388,7.82
33.392,7.7
33.396,7.784
33.4,7.868
33.404,7.816
33.408,7.72
33.412,7.764
33.416,7.868
33.42,7.864
33.424,7.748
33.428,7.76
33.432,7.88
33.436,7.88
33.44,7.756
33.444,7.716
33.448,7.832
33.452,7.896
33.456,7.78
33.46,7.708
33.464,7.828
33.468,7.9
33.472,7.808
33.476,7.708
33.48,7.832
33.484,7.9
33.488,7.8
33.492,7.744
33.496,7.768
33.5,7.876
33.504,7.812
33.508,7.728
33.512,7.76
33.516,7.864
33.52,7.86
33.524,7.732
33.528,7.744
33.532,7.86
33.536,7.88
33.54,7.784
33.544,7.716
33.548,7.844
33.552,7.88
33.556,7.772
33.56,7.712
33.564,7.832
33.568,7.912
33.572,7.808
33.576,7.7
33.58,7.796
33.584,7.872
33.588,7.8
33.592,7.708
33.596,7.768
33.6,7.868
33.604,7.824
33.608,7.712
33.612,7.764
33.616,7.924
33.62,7.928
33.624,7.84
33.628,7.828
33.632,7.944
33.636,7.984
33.64,7.864
33.644,7.816
33.648,7.948
33.652,8.004
33.656,7.884
33.66,7.836
33.664,7.932
33.668,7.976
33.672,7.828
33.676,7.728
33.68,7.832
33.684,7.908
33.688,7.848
33.692,7.708
33.696,7.744
33.7,7.82
33.704,7.772
33.708,7.66
33.712,7.7
33.716,7.828
33.72,7.784
33.724,7.636
33.728,7.648
33.732,7.8
33.736,7.808
33.74,7.676
33.744,7.64
33.748,7.764
33.752,7.82
33.756,7.708
33.76,7.664
33.764,7.752
33.768,7.752
33.772,7.608
33.776,7.544
33.78,7.8
33.784,8.168
33.788,8.516
33.792,9.1
33.796,9.864
33.8,10.404
33.804,10.164
33.808,9.58
33.812,8.804
33.816,8.356
33.82,8.124
33.824,7.932
33.828,7.872
33.832,7.964
33.836,7.996
33.84,7.888
33.844,7.82
33.848,7.888
33.852,7.924
33.856,7.812
33.86,7.74
33.864,7.86
33.868,7.904
33.872,7.844
33.876,7.76
33.88,7.824
33.884,7.924
33.888,7.852
33.892,7.748
33.896,7.804
33.9,7.944
33.904,7.892
33.908,7.784
33.912,7.796
33.916,7.924
33.92,7.9
33.924,7.804
33.928,7.816
33.932,7.944
33.936,7.952
33.94,7.844
33.944,7.804
33.948,7.932
33.952,8.012
33.956,7.892
33.96,7.812
33.964,7.928
33.968,8.036
33.972,7.956
33.976,7.864
33.98,7.928
33.984,8.044
33.988,7.988
33.992,7.912
33.996,7.972
34,8.08
34.004,8.044
34.008,7.916
34.012,7.956
34.016,8.096
34.02,8.1
34.024,8.012
34.028,7.992
34.032,8.16
34.036,8.212
34.04,8.1
34.044,8.056
34.048,8.216
34.052,8.296
34.056,8.224
34.06,8.172
34.064,8.296
34.068,8.412
34.072,8.344
34.076,8.312
34.08,8.436
34.084,8.54
34.088,8.524
34.092,8.428
34.096,8.516
34.1,8.668
34.104,8.644
34.108,8.556
34.112,8.596
34.116,8.724
34.12,8.736
34.124,8.628
34.128,8.62
34.132,8.732
34.136,8.756
34.14,8.616
34.144,8.556
34.148,8.624
34.152,8.644
34.156,8.516
34.16,8.4
34.164,8.484
34.168,8.504
34.172,8.332
34.176,8.204
34.18,8.224
34.184,8.304
34.188,8.196
34.192,8.036
34.196,8.036
34.2,8.128
34.204,8.06
34.208,7.916
34.212,7.932
34.216,7.996
34.22,7.984
34.224,7.852
34.228,7.816
34.232,7.924
34.236,7.944
34.24,7.832
34.244,7.764
34.248,7.892
34.252,7.94
34.256,7.836
34.26,7.752
34.264,7.84
34.268,7.896
34.272,7.844
34.276,7.752
34.28,7.788
34.284,7.888
34.288,7.852
34.292,7.748
34.296,7.808
34.3,7.912
34.304,7.88
34.308,7.776
34.312,7.772
34.316,7.92
34.32,7.928
34.324,7.768
34.328,7.76
34.332,7.892
34.336,7.932
34.34,7.808
34.344,7.76
34.348,7.876
34.352,7.952
34.356,7.84
34.36,7.772
34.364,7.872
34.368,7.94
34.372,7.876
34.376,7.784
34.38,7.848
34.384,7.944
34.388,7.88
34.392,7.768
34.396,7.816
34.4,7.928
34.404,7.888
34.408,7.784
34.412,7.76
34.416,7.9
34.42,7.876
34.424,7.816
34.428,7.768
34.432,7.88
34.436,7.884
34.44,7.8
34.444,7.748
34.448,7.824
34.452,7.872
34.456,7.788
34.46,7.712
34.464,7.824
34.468,7.892
34.472,7.8
34.476,7.736
34.48,7.78
34.484,7.872
34.488,7.824
34.492,7.724
34.496,7.78
34.5,7.892
34.504,7.852
34.508,7.752
34.512,7.74
34.516,7.84
34.52,7.852
34.524,7.744
34.528,7.716
34.532,7.844
34.536,7.856
34.54,7.74
34.544,7.692
34.548,7.816
34.552,7.892
34.556,7.796
34.56,7.708
34.564,7.796
34.568,7.892
34.572,7.812
34.576,7.712
34.58,7.792
34.584,7.888
34.588,7.84
34.592,7.72
34.596,7.78
34.6,7.884
34.604,7.848
34.608,7.736
34.612,7.76
34.616,7.856
34.62,7.888
34.624,7.748
34.628,7.716
34.632,7.84
34.636,7.868
34.64,7.784
34.644,7.744
34.648,7.844
34.652,7.888
34.656,7.776
34.66,7.696
34.664,7.832
34.668,7.92
34.672,7.82
34.676,7.696
34.68,7.772
34.684,7.904
34.688,7.844
34.692,7.728
34.696,7.752
34.7,7.872
34.704,7.868
34.708,7.736
34.712,7.748
34.716,7.856
34.72,7.872
34.724,7.76
34.728,7.724
34.732,7.84
34.736,7.888
34.74,7.772
34.744,7.724
34.748,7.824
34.752,7.9
34.756,7.792
34.76,7.704
34.764,7.828
34.768,7.904
34.772,7.824
34.776,7.724
34.78,7.804
34.784,7.908
34.788,7.844
34.792,7.74
34.796,7.744
34.8,7.884
34.804,7.86
34.808,7.748
34.812,7.772
34.816,7.924
34.82,7.94
34.824,7.836
34.828,7.848
34.832,7.984
34.836,8.028
34.84,7.908
34.844,7.884
34.848,7.992
34.852,8.048
34.856,7.928
34.86,7.852
34.864,7.968
34.868,8.024
34.872,7.936
34.876,7.808
34.88,7.852
34.884,7.94
34.888,7.848
34.892,7.72
34.896,7.772
34.9,7.852
34.904,7.804
34.908,7.704
34.912,7.692
34.916,7.788
34.92,7.824
34.924,7.672
34.928,7.62
34.932,7.756
34.936,7.8
34.94,7.68
34.944,7.656
34.948,7.74
34.952,7.82
34.956,7.72
34.96,7.648
34.964,7.768
34.968,7.84
34.972,7.696
34.976,7.568
34.98,7.58
34.984,7.768
34.988,7.964
34.992,8.172
34.996,8.744
35,9.584
35.004,10.132
35.008,10.14
35.012,9.856
35.016,9.284
35.02,8.592
35.024,8.072
35.028,7.932
35.032,7.996
35.036,7.972
35.04,7.872
35.044,7.844
35.048,7.94
35.052,7.96
35.056,7.824
35.06,7.708
35.064,7.812
35.068,7.9
35.072,7.808
35.076,7.72
35.08,7.804
35.084,7.916
35.088,7.868
35.092,7.756
35.096,7.788
35.1,7.908
35.104,7.868
35.108,7.788
35.112,7.776
35.116,7.912
35.12,7.928
35.124,7.792
35.128,7.768
35.132,7.908
35.136,7.94
35.14,7.864
35.144,7.776
35.148,7.912
35.152,7.948
35.156,7.872
35.16,7.8
35.164,7.904
35.168,7.972
35.172,7.896
35.176,7.82
35.18,7.904
35.184,7.996
35.188,7.956
35.192,7.852
35.196,7.884
35.2,8.028
35.204,8
35.208,7.876
35.212,7.92
35.216,8.048
35.22,8.064
35.224,7.964
35.228,7.96
35.232,8.08
35.236,8.136
35.24,8.048
35.244,8.012
35.248,8.144
35.252,8.256
35.256,8.164
35.26,8.112
35.264,8.2
35.268,8.352
35.272,8.312
35.276,8.244
35.28,8.328
35.284,8.476
35.288,8.46
35.292,8.404
35.296,8.444
35.3,8.576
35.304,8.616
35.308,8.532
35.312,8.56
35.316,8.692
35.32,8.696
35.324,8.592
35.328,8.6
35.332,8.74
35.336,8.784
35.34,8.64
35.344,8.572
35.348,8.668
35.352,8.692
35.356,8.56
35.36,8.444
35.364,8.512
35.368,8.54
35.372,8.44
35.376,8.312
35.38,8.3
35.384,8.352
35.388,8.264
35.392,8.128
35.396,8.108
35.4,8.188
35.404,8.096
35.408,7.952
35.412,7.932
35.416,8.056
35.42,8.044
35.424,7.916
35.428,7.848
35.432,7.968
35.436,7.964
35.44,7.868
35.444,7.788
35.448,7.888
35.452,7.964
35.456,7.848
35.46,7.78
35.464,7.852
35.468,7.932
35.472,7.868
35.476,7.74
35.48,7.832
35.484,7.94
35.488,7.864
35.492,7.776
35.496,7.796
35.5,7.932
35.504,7.912
35.508,7.796
35.512,7.792
35.516,7.932
35.52,7.936
35.524,7.82
35.528,7.796
35.532,7.908
35.536,7.948
35.54,7.824
35.544,7.784
35.548,7.932
35.552,8
35.556,7.896
35.56,7.796
35.564,7.924
35.568,8.012
35.572,7.948
35.576,7.812
35.58,7.896
35.584,7.992
35.588,7.96
35.592,7.872
35.596,7.868
35.6,7.98
35.604,7.936
35.608,7.848
35.612,7.868
35.616,7.98
35.62,7.956
35.624,7.836
35.628,7.804
35.632,7.96
35.636,7.984
35.64,7.844
35.644,7.808
35.648,7.92
35.652,7.972
35.656,7.86
35.66,7.788
35.664,7.884
35.668,7.952
35.672,7.908
35.676,7.792
35.68,7.856
35.684,7.948
35.688,7.904
35.692,7.808
35.696,7.824
35.7,7.936
35.704,7.928
35.708,7.812
35.712,7.8
35.716,7.916
35.72,7.94
35.724,7.82
35.728,7.764
35.732,7.904
35.736,7.936
35.74,7.824
35.744,7.768
35.748,7.888
35.752,7.928
35.756,7.84
35.76,7.764
35.764,7.872
35.768,7.936
35.772,7.872
35.776,7.768
35.78,7.836
35.784,7.96
35.788,7.904
35.792,7.804
35.796,7.808
35.8,7.94
35.804,7.924
35.808,7.848
35.812,7.828
35.816,7.936
35.82,7.956
35.824,7.852
35.828,7.792
35.832,7.916
35.836,7.972
35.84,7.852
35.844,7.772
35.848,7.912
35.852,7.984
35.856,7.888
35.86,7.808
35.864,7.892
35.868,7.984
35.872,7.904
35.876,7.816
35.88,7.88
35.884,7.984
35.888,7.936
35.892,7.84
35.896,7.86
35.9,7.988
35.904,7.94
35.908,7.84
35.912,7.828
35.916,7.988
35.92,7.988
35.924,7.836
35.928,7.796
35.932,7.936
35.936,8.008
35.94,7.892
35.944,7.824
35.948,7.928
35.952,8.012
35.956,7.924
35.96,7.828
35.964,7.928
35.968,8.012
35.972,7.916
35.976,7.828
35.98,7.872
35.984,8.02
35.988,7.948
35.992,7.852
35.996,7.868
36,8.008
36.004,8
36.008,7.856
36.012,7.872
36.016,8.04
36.02,8.084
36.024,8.012
36.028,7.956
36.032,8.096
36.036,8.108
36.04,8
36.044,7.972
36.048,8.064
36.052,8.136
36.056,8.048
36.06,7.996
36.064,8.072
36.068,8.136
36.072,8.04
36.076,7.9
36.08,7.976
36.084,8.08
36.088,8.02
36.092,7.872
36.096,7.88
36.1,7.988
36.104,7.964
36.108,7.828
36.112,7.82
36.116,7.932
36.12,7.972
36.124,7.84
36.128,7.804
36.132,7.936
36.136,7.96
36.14,7.864
36.144,7.792
36.148,7.916
36.152,7.984
36.156,7.892
36.16,7.796
36.164,7.888
36.168,7.904
36.172,7.788
36.176,7.68
36.18,7.808
36.184,8.168
36.188,8.504
36.192,8.98
36.196,9.796
36.2,10.54
36.204,10.696
36.208,10.26
36.212,9.484
36.216,8.992
36.22,8.556
36.224,8.272
36.228,8.128
36.232,8.164
36.236,8.22
36.24,8.132
36.244,8.008
36.248,8.064
36.252,8.124
36.256,8.024
36.26,7.928
36.264,8.004
36.268,8.096
36.272,8.004
36.276,7.908
36.28,7.968
36.284,8.092
36.288,8.056
36.292,7.944
36.296,7.956
36.3,8.1
36.304,8.104
36.308,7.976
36.312,7.936
36.316,8.068
36.32,8.104
36.324,7.996
36.328,7.208
36.332,6.64
36.336,7.468
36.34,7.804
36.344,7.676
36.348,7.464
36.352,7.692
36.356,8.052
36.36,7.932
36.364,7.652
36.368,7.792
36.372,8.152
36.376,8.116
36.38,7.772
36.384,7.82
36.388,8.2
36.392,8.236
36.396,7.892
36.4,7.872
36.404,8.232
36.408,8.356
36.412,7.868
36.416,8.772
36.42,7.872
36.424,7.448
36.428,8.408
36.432,8.952
36.436,8.112
36.44,7.516
36.444,8.316
36.448,9.016
36.452,8.4
36.456,7.704
36.46,8.244
36.464,9.052
36.468,8.688
36.472,7.94
36.476,8.26
36.48,9.052
36.484,8.936
36.488,8.188
36.492,8.308
36.496,9.076
36.5,9.12
36.504,8.48
36.508,8.492
36.512,9.048
36.516,9.152
36.52,8.716
36.524,8.652
36.528,8.988
36.532,9.056
36.536,8.844
36.54,8.744
36.544,8.88
36.548,8.9
36.552,8.808
36.556,8.732
36.56,8.692
36.564,8.688
36.568,8.68
36.572,8.576
36.576,8.484
36.58,8.436
36.584,8.48
36.588,8.4
36.592,8.272
36.596,8.228
36.6,8.28
36.604,8.236
36.608,8.176
36.612,8.108
36.616,8.124
36.62,8.128
36.624,8.104
36.628,8.076
36.632,8.056
36.636,8.076
36.64,8.08
36.644,8.016
36.648,7.98
36.652,8.06
36.656,8.096
36.66,7.992
36.664,7.944
36.668,8.036
36.672,8.104
36.676,7.992
36.68,7.932
36.684,8.016
36.688,8.1
36.692,8.032
36.696,7.952
36.7,7.984
36.704,8.072
36.708,8.04
36.712,7.968
36.716,8.004
36.72,8.076
36.724,8.072
36.728,7.98
36.732,7.984
36.736,8.1
36.74,8.12
36.744,8.028
36.748,7.976
36.752,8.116
36.756,8.176
36.76,8.06
36.764,7.98
36.768,8.072
36.772,8.156
36.776,8.056
36.78,7.98
36.784,8.048
36.788,8.124
36.792,8.056
36.796,7.96
36.8,8.048
36.804,8.128
36.808,8.064
36.812,7.956
36.816,7.984
36.82,8.116
36.824,8.104
36.828,7.948
36.832,7.96
36.836,8.056
36.84,8.112
36.844,7.964
36.848,7.924
36.852,7.852
36.856,7.9
36.86,7.828
36.864,7.932
36.868,8.044
36.872,7.976
36.876,7.88
36.88,7.92
36.884,8.036
36.888,8.004
36.892,7.896
36.896,7.908
36.9,8.036
36.904,8.016
36.908,7.92
36.912,7.892
36.916,8.008
36.92,8.028
36.924,7.94
36.928,7.876
36.932,7.976
36.936,8.056
36.94,7.948
36.944,7.868
36.948,7.988
36.952,8.044
36.956,7.952
36.96,7.852
36.964,7.956
36.968,8.04
36.972,7.992
36.976,7.88
36.98,7.928
36.984,8
36.988,8.004
36.992,7.876
36.996,7.904
37,8.036
37.004,8.02
37.008,7.892
37.012,7.888
37.016,8.02
37.02,8.008
37.024,7.9
37.028,7.86
37.032,7.972
37.036,8.044
37.04,7.928
37.044,7.856
37.048,7.952
37.052,8.024
37.056,7.952
37.06,7.904
37.064,7.964
37.068,8.064
37.072,7.98
37.076,7.896
37.08,7.908
37.084,8.02
37.088,7.996
37.092,7.884
37.096,7.9
37.1,8.024
37.104,8.016
37.108,7.892
37.112,7.896
37.116,8.004
37.12,8.032
37.124,7.904
37.128,7.836
37.132,7.964
37.136,8.028
37.14,7.928
37.144,7.856
37.148,7.96
37.152,8.028
37.156,7.948
37.16,7.824
37.164,7.916
37.168,8.024
37.172,7.98
37.176,7.868
37.18,7.912
37.184,8.052
37.188,8.032
37.192,7.904
37.196,7.9
37.2,8.016
37.204,8.012
37.208,7.9
37.212,7.892
37.216,8.024
37.22,8.032
37.224,7.952
37.228,7.952
37.232,8.088
37.236,8.148
37.24,8.064
37.244,7.988
37.248,8.112
37.252,8.188
37.256,8.092
37.26,8.012
37.264,8.084
37.268,8.176
37.272,8.112
37.276,8.016
37.28,8.02
37.284,8.092
37.288,8.052
37.292,7.924
37.296,7.928
37.3,8.032
37.304,8.024
37.308,7.864
37.312,7.828
37.316,7.98
37.32,8.008
37.324,7.84
37.328,7.796
37.332,7.888
37.336,7.96
37.34,7.876
37.344,7.772
37.348,7.868
37.352,7.948
37.356,7.868
37.36,7.784
37.364,7.86
37.368,7.928
37.372,7.912
37.376,7.804
37.38,7.772
37.384,7.836
37.388,7.768
37.392,7.8
37.396,8.092
37.4,8.588
37.404,9.212
37.408,9.836
37.412,10.332
37.416,10.428
37.42,10.084
37.424,9.16
37.428,8.484
37.432,8.252
37.436,8.204
37.44,8.076
37.444,7.98
37.448,8.092
37.452,8.156
37.456,8.02
37.46,7.9
37.464,7.968
37.468,8.064
37.472,8.02
37.476,7.924
37.48,7.932
37.484,8.04
37.488,8.016
37.492,7.916
37.496,7.924
37.5,8.04
37.504,8.028
37.508,7.94
37.512,7.912
37.516,8.028
37.52,8.044
37.524,7.944
37.528,7.92
37.532,8.04
37.536,8.088
37.54,7.984
37.544,7.912
37.548,8
37.552,8.08
37.556,8.02
37.56,7.928
37.564,7.996
37.568,8.108
37.572,8.06
37.576,7.972
37.58,8.004
37.584,8.1
37.588,8.096
37.592,8.008
37.596,8.024
37.6,8.156
37.604,8.168
37.608,8.052
37.612,8.044
37.616,8.164
37.62,8.208
37.624,8.1
37.628,8.052
37.632,8.196
37.636,8.284
37.64,8.2
37.644,8.128
37.648,8.244
37.652,8.34
37.656,8.284
37.66,8.236
37.664,8.328
37.668,8.44
37.672,8.408
37.676,8.344
37.68,8.412
37.684,8.56
37.688,8.572
37.692,8.468
37.696,8.508
37.7,8.676
37.704,8.736
37.708,8.64
37.712,8.636
37.716,8.768
37.72,8.832
37.724,8.752
37.728,8.692
37.732,8.832
37.736,8.896
37.74,8.792
37.744,8.72
37.748,8.784
37.752,8.868
37.756,8.776
37.76,8.652
37.764,8.676
37.768,8.744
37.772,8.632
37.776,8.492
37.78,8.496
37.784,8.552
37.788,8.46
37.792,8.32
37.796,8.268
37.8,8.324
37.804,8.304
37.808,8.152
37.812,8.1
37.816,8.184
37.82,8.172
37.824,8.032
37.828,7.944
37.832,8.052
37.836,8.104
37.84,8.004
37.844,7.888
37.848,7.976
37.852,8.06
37.856,7.992
37.86,7.868
37.864,7.936
37.868,8.032
37.872,7.972
37.876,7.88
37.88,7.904
37.884,8.012
37.888,7.968
37.892,7.852
37.896,7.868
37.9,8
37.904,8.02
37.908,7.892
37.912,7.852
37.916,7.976
37.92,8.012
37.924,7.924
37.928,7.856
37.932,7.968
37.936,8.04
37.94,7.948
37.944,7.892
37.948,7.98
37.952,8.056
37.956,7.976
37.96,7.864
37.964,7.96
37.968,8.056
37.972,8.012
37.976,7.916
37.98,7.924
37.984,8.008
37.988,8.024
37.992,7.892
37.996,7.896
38,8.024
38.004,8.02
38.008,7.924
38.012,7.888
38.016,8.016
38.02,8.044
38.024,7.936
38.028,7.852
38.032,7.98
38.036,8.024
38.04,7.924
38.044,7.848
38.048,7.956
38.052,8.036
38.056,7.94
38.06,7.84
38.064,7.908
38.068,8.012
38.072,7.956
38.076,7.856
38.08,7.88
38.084,7.976
38.088,7.956
38.092,7.864
38.096,7.856
38.1,8.008
38.104,7.976
38.108,7.832
38.112,7.82
38.116,7.952
38.12,7.988
38.124,7.868
38.128,7.804
38.132,7.896
38.136,7.996
38.14,7.876
38.144,7.832
38.148,7.916
38.152,7.98
38.156,7.92
38.16,7.824
38.164,7.864
38.168,7.968
38.172,7.924
38.176,7.828
38.18,7.864
38.184,7.992
38.188,7.964
38.192,7.824
38.196,7.816
38.2,7.972
38.204,7.992
38.208,7.852
38.212,7.8
38.216,7.944
38.22,7.968
38.224,7.884
38.228,7.836
38.232,7.916
38.236,7.972
38.24,7.888
38.244,7.824
38.248,7.9
38.252,7.98
38.256,7.912
38.26,7.784
38.264,7.888
38.268,7.976
38.272,7.948
38.276,7.836
38.28,7.828
38.284,7.972
38.288,7.948
38.292,7.84
38.296,7.836
38.3,7.948
38.304,7.948
38.308,7.836
38.312,7.816
38.316,7.932
38.32,7.976
38.324,7.856
38.328,7.812
38.332,7.908
38.336,7.98
38.34,7.876
38.344,7.796
38.348,7.868
38.352,7.968
38.356,7.928
38.36,7.808
38.364,7.864
38.368,7.972
38.372,7.928
38.376,7.816
38.38,7.836
38.384,7.976
38.388,7.924
38.392,7.824
38.396,7.828
38.4,7.94
38.404,7.956
38.408,7.828
38.412,7.8
38.416,7.932
38.42,7.968
38.424,7.864
38.428,7.832
38.432,7.928
38.436,7.968
38.44,7.908
38.444,7.88
38.448,7.984
38.452,8.084
38.456,8.036
38.46,7.96
38.464,8.012
38.468,8.108
38.472,8.056
38.476,7.94
38.48,7.976
38.484,8.112
38.488,8.084
38.492,7.972
38.496,7.932
38.5,8.028
38.504,8.012
38.508,7.904
38.512,7.84
38.516,7.972
38.52,7.956
38.524,7.856
38.528,7.776
38.532,7.876
38.536,7.948
38.54,7.824
38.544,7.756
38.548,7.824
38.552,7.892
38.556,7.82
38.56,7.732
38.564,7.78
38.568,7.896
38.572,7.868
38.576,7.744
38.58,7.744
38.584,7.892
38.588,7.884
38.592,7.792
38.596,7.748
38.6,7.78
38.604,7.788
38.608,7.716
38.612,7.904
38.616,8.324
38.62,8.832
38.624,9.468
38.628,10.016
38.632,10.388
38.636,10.176
38.64,9.476
38.644,8.64
38.648,8.28
38.652,8.208
38.656,8.088
38.66,7.936
38.664,7.972
38.668,8.1
38.672,8.068
38.676,7.908
38.68,7.888
38.684,8.004
38.688,7.988
38.692,7.848
38.696,7.848
38.7,7.96
38.704,7.988
38.708,7.868
38.712,7.84
38.716,7.968
38.72,8.016
38.724,7.916
38.728,7.852
38.732,7.944
38.736,8.032
38.74,7.956
38.744,7.876
38.748,7.944
38.752,8.032
38.756,7.948
38.76,7.888
38.764,7.952
38.768,8.156
38.772,8.092
38.776,8
38.78,7.94
38.784,8.064
38.788,8.064
38.792,8
38.796,7.956
38.8,7.988
38.804,8.084
38.808,8.032
38.812,8.04
38.816,7.78
38.82,8.056
38.824,8.308
38.828,8.076
38.832,7.808
38.836,8.008
38.84,8.32
38.844,8.052
38.848,7.984
38.852,8.148
38.856,8.192
38.86,8.112
38.864,8.08
38.868,8.124
38.872,8.312
38.876,8.26
38.88,8.18
38.884,8.252
38.888,8.384
38.892,8.376
38.896,8.284
38.9,8.348
38.904,8.488
38.908,8.52
38.912,8.456
38.916,8.468
38.92,8.612
38.924,8.676
38.928,8.584
38.932,8.556
38.936,8.716
38.94,8.816
38.944,8.704
38.948,8.628
38.952,8.752
38.956,8.884
38.96,8.764
38.964,8.644
38.968,8.724
38.972,8.844
38.976,8.744
38.98,8.568
38.984,8.572
38.988,8.696
38.992,8.596
38.996,8.42
39,8.42
39.004,8.476
39.008,8.436
39.012,8.244
39.016,8.192
39.02,8.296
39.024,8.3
39.028,8.104
39.032,8.004
39.036,8.084
39.04,8.168
39.044,8.044
39.048,7.92
39.052,8.008
39.056,8.108
39.06,7.968
39.064,7.876
39.068,7.972
39.072,8.036
39.076,7.992
39.08,7.816
39.084,7.908
39.088,8.052
39.092,7.98
39.096,7.824
39.1,7.856
39.104,7.996
39.108,8
39.112,7.848
39.116,7.844
39.12,8.012
39.124,8.056
39.128,7.868
39.132,7.82
39.136,7.948
39.14,8.048
39.144,7.924
39.148,7.82
39.152,7.956
39.156,8.06
39.16,7.948
39.164,7.828
