0,7.952
0.004,7.936
0.008,8.004
0.012,8.064
0.016,7.98
0.02,7.956
0.024,7.984
0.028,8.072
0.032,7.996
0.036,7.928
0.04,7.96
0.044,8.056
0.048,8.044
0.052,8.004
0.056,8.044
0.06,8.168
0.064,8.152
0.068,8.076
0.072,8.1
0.076,8.228
0.08,8.228
0.084,8.132
0.088,8.1
0.092,8.156
0.096,8.164
0.1,8.112
0.104,8.024
0.108,8.084
0.112,8.14
0.116,8.004
0.12,7.904
0.124,7.96
0.128,8.004
0.132,7.94
0.136,7.864
0.14,7.928
0.144,7.996
0.148,7.98
0.152,7.852
0.156,7.92
0.16,8
0.164,8
0.168,7.888
0.172,7.832
0.176,7.864
0.18,8.068
0.184,8.316
0.188,8.816
0.192,9.512
0.196,10.252
0.2,10.828
0.204,11.128
0.208,10.58
0.212,9.3
0.216,8.268
0.22,7.768
0.224,7.764
0.228,7.936
0.232,7.928
0.236,7.884
0.24,7.984
0.244,8.116
0.248,8.076
0.252,7.976
0.256,7.984
0.26,8.096
0.264,8.04
0.268,7.964
0.272,7.972
0.276,8.1
0.28,8.096
0.284,8.044
0.288,7.992
0.292,8.096
0.296,8.124
0.3,8.04
0.304,8.028
0.308,8.116
0.312,8.176
0.316,8.112
0.32,8.068
0.324,8.132
0.328,8.208
0.332,8.172
0.336,8.1
0.34,8.192
0.344,8.268
0.348,8.236
0.352,8.192
0.356,8.208
0.36,8.384
0.364,8.364
0.368,8.292
0.372,8.332
0.376,8.444
0.38,8.472
0.384,8.4
0.388,8.452
0.392,8.54
0.396,8.644
0.4,8.636
0.404,8.64
0.408,8.756
0.412,8.86
0.416,8.848
0.42,8.856
0.424,8.98
0.428,9.064
0.432,9.052
0.436,9.024
0.44,9.1
0.444,9.22
0.448,9.148
0.452,8.98
0.456,8.956
0.46,8.964
0.464,8.84
0.468,8.632
0.472,8.504
0.476,8.512
0.48,8.432
0.484,8.256
0.488,8.184
0.492,8.176
0.496,8.192
0.5,8.052
0.504,7.988
0.508,8.06
0.512,8.084
0.516,7.996
0.52,7.912
0.524,7.948
0.528,8.036
0.532,7.98
0.536,7.896
0.54,7.916
0.544,8.032
0.548,8.004
0.552,7.88
0.556,7.892
0.56,8.012
0.564,7.976
0.568,7.892
0.572,7.92
0.576,7.996
0.58,8.004
0.584,7.896
0.588,7.9
0.592,7.996
0.596,8.008
0.6,7.9
0.604,7.876
0.608,7.964
0.612,8.036
0.616,7.948
0.62,7.876
0.624,7.912
0.628,8.028
0.632,7.944
0.636,7.88
0.64,7.936
0.644,8.024
0.648,7.972
0.652,7.896
0.656,7.9
0.66,7.988
0.664,7.976
0.668,7.892
0.672,7.88
0.676,7.952
0.68,7.992
0.684,7.884
0.688,7.836
0.692,7.94
0.696,7.96
0.7,7.888
0.704,7.84
0.708,7.928
0.712,7.98
0.716,7.916
0.72,7.86
0.724,7.896
0.728,7.956
0.732,7.912
0.736,7.82
0.74,7.86
0.744,7.972
0.748,7.908
0.752,7.84
0.756,7.856
0.76,7.956
0.764,7.924
0.768,7.824
0.772,7.84
0.776,7.924
0.78,7.94
0.784,7.856
0.788,7.876
0.792,7.976
0.796,8.028
0.8,7.956
0.804,7.924
0.808,8.048
0.812,8.128
0.816,8.084
0.82,8.012
0.824,8.044
0.828,8.096
0.832,8.044
0.836,7.968
0.84,7.98
0.844,8.06
0.848,7.996
0.852,7.868
0.856,7.848
0.86,7.932
0.864,7.884
0.868,7.768
0.872,7.772
0.876,7.88
0.88,7.884
0.884,7.824
0.888,7.768
0.892,7.864
0.896,7.884
0.9,7.848
0.904,7.78
0.908,7.808
0.912,7.752
0.916,7.744
0.92,8.02
0.924,8.572
0.928,9.236
0.932,9.904
0.936,10.548
0.94,11.064
0.944,10.956
0.948,9.7
0.952,8.412
0.956,7.772
0.96,7.724
0.964,7.78
0.968,7.724
0.972,7.776
0.976,7.96
0.98,7.964
0.984,7.876
0.988,7.884
0.992,7.972
0.996,8.004
1,7.94
1.004,7.872
1.008,7.984
1.012,8.028
1.016,7.968
1.02,7.92
1.024,7.98
1.028,8.068
1.032,7.996
1.036,7.924
1.04,7.976
1.044,8.096
1.048,8.068
1.052,7.972
1.056,8.008
1.06,8.132
1.064,8.16
1.068,8.056
1.072,8.056
1.076,8.188
1.08,8.172
1.084,8.1
1.088,8.104
1.092,8.212
1.096,8.292
1.1,8.236
1.104,8.208
1.108,8.308
1.112,8.396
1.116,8.344
1.12,8.292
1.124,8.416
1.128,8.54
1.132,8.524
1.136,8.496
1.14,8.6
1.144,8.72
1.148,8.772
1.152,8.724
1.156,8.808
1.16,8.944
1.164,8.976
1.168,8.936
1.172,8.96
1.176,9.1
1.18,9.104
1.184,9.016
1.188,8.94
1.192,8.968
1.196,8.936
1.2,8.736
1.204,8.596
1.208,8.516
1.212,8.52
1.216,8.344
1.22,8.2
1.224,8.176
1.228,8.204
1.232,8.12
1.236,7.988
1.24,8
1.244,8.044
1.248,7.996
1.252,7.892
1.256,7.932
1.26,8.024
1.264,7.996
1.268,7.916
1.272,7.888
1.276,7.992
1.28,7.98
1.284,7.9
1.288,7.86
1.292,7.976
1.296,8.004
1.3,7.924
1.304,7.852
1.308,7.936
1.312,8.008
1.316,7.94
1.32,7.856
1.324,7.912
1.328,8.024
1.332,7.948
1.336,7.856
1.34,7.892
1.344,7.988
1.348,7.98
1.352,7.884
1.356,7.92
1.36,8.004
1.364,7.984
1.368,7.908
1.372,7.904
1.376,8.016
1.38,8
1.384,7.908
1.388,7.92
1.392,7.988
1.396,8.02
1.4,7.948
1.404,7.876
1.408,7.96
1.412,8.016
1.416,7.932
1.42,7.868
1.424,7.956
1.428,8.008
1.432,7.968
1.436,7.86
1.44,7.912
1.444,7.988
1.448,7.98
1.452,7.86
1.456,7.892
1.46,8.024
1.464,7.996
1.468,7.892
1.472,7.892
1.476,7.968
1.48,8.004
1.484,7.912
1.488,7.864
1.492,7.992
1.496,8.004
1.5,7.92
1.504,7.868
1.508,7.964
1.512,8.016
1.516,7.94
1.52,7.852
1.524,7.944
1.528,8.04
1.532,8.008
1.536,7.964
1.54,8.004
1.544,8.124
1.548,8.116
1.552,8.036
1.556,8.092
1.56,8.236
1.564,8.192
1.568,8.06
1.572,8.052
1.576,8.136
1.58,8.112
1.584,8.008
1.588,7.984
1.592,8.064
1.596,8.08
1.6,7.928
1.604,7.864
1.608,7.908
1.612,7.992
1.616,7.908
1.62,7.84
1.624,7.872
1.628,7.956
1.632,7.896
1.636,7.812
1.64,7.884
1.644,7.984
1.648,7.924
1.652,7.776
1.656,7.768
1.66,7.9
1.664,8.148
1.668,8.484
1.672,9.024
1.676,9.764
1.68,10.548
1.684,11.04
1.688,11.228
1.692,10.232
1.696,8.824
1.7,8
1.704,7.8
1.708,7.936
1.712,8.02
1.716,7.988
1.72,7.936
1.724,8.012
1.728,8.124
1.732,8.064
1.736,7.96
1.74,7.98
1.744,8.092
1.748,8.06
1.752,7.968
1.756,8.012
1.76,8.12
1.764,8.1
1.768,7.996
1.772,8.012
1.776,8.116
1.78,8.12
1.784,8.056
1.788,8.032
1.792,8.144
1.796,8.164
1.8,8.092
1.804,8.064
1.808,8.16
1.812,8.228
1.816,8.172
1.82,8.148
1.824,8.192
1.828,8.276
1.832,8.232
1.836,8.204
1.84,8.244
1.844,8.364
1.848,8.376
1.852,8.288
1.856,8.332
1.86,8.476
1.864,8.512
1.868,8.424
1.872,8.472
1.876,8.628
1.88,8.696
1.884,8.664
1.888,8.664
1.892,8.808
1.896,8.908
1.9,8.884
1.904,8.876
1.908,8.992
1.912,9.12
1.916,9.08
1.92,9.048
1.924,9.096
1.928,9.216
1.932,9.132
1.936,9.004
1.94,8.968
1.944,8.988
1.948,8.832
1.952,8.62
1.956,8.52
1.96,8.52
1.964,8.428
1.968,8.268
1.972,8.208
1.976,8.264
1.98,8.216
1.984,8.096
1.988,8.04
1.992,8.108
1.996,8.108
2,8.044
2.004,7.952
2.008,8.032
2.012,8.092
2.016,8.012
2.02,7.956
2.024,7.988
2.028,8.076
2.032,8.04
2.036,7.932
2.04,7.96
2.044,8.064
2.048,8.052
2.052,7.924
2.056,7.972
2.06,8.072
2.064,8.04
2.068,7.948
2.072,7.944
2.076,8.052
2.08,8.052
2.084,7.968
2.088,7.96
2.092,8.044
2.096,8.08
2.1,8.008
2.104,7.968
2.108,8.044
2.112,8.08
2.116,8.028
2.12,7.968
2.124,8.004
2.128,8.096
2.132,8.04
2.136,7.948
2.14,7.988
2.144,8.104
2.148,8.064
2.152,7.956
2.156,7.96
2.16,8.084
2.164,8.088
2.168,7.948
2.172,7.976
2.176,8.056
2.18,8.084
2.184,7.972
2.188,7.94
2.192,8.016
2.196,8.04
2.2,7.972
2.204,7.932
2.208,7.996
2.212,8.068
2.216,7.992
2.22,7.932
2.224,7.984
2.228,8.064
2.232,8.016
2.236,7.904
2.24,7.956
2.244,8.076
2.248,8.016
2.252,7.912
2.256,7.924
2.26,8.024
2.264,8.036
2.268,7.912
2.272,7.936
2.276,8.048
2.28,8.092
2.284,8.032
2.288,7.98
2.292,8.136
2.296,8.14
2.3,8.112
2.304,8.068
2.308,8.212
2.312,8.256
2.316,8.172
2.32,8.076
2.324,8.112
2.328,8.18
2.332,8.108
2.336,8.008
2.34,8.052
2.344,8.12
2.348,8.04
2.352,7.9
2.356,7.916
2.36,8
2.364,7.976
2.368,7.884
2.372,7.892
2.376,7.968
2.38,7.972
2.384,7.896
2.388,7.88
2.392,7.968
2.396,8.016
2.4,7.936
2.404,7.808
2.408,7.844
2.412,8.144
2.416,8.444
2.42,8.94
2.424,9.584
2.428,10.428
2.432,11
2.436,11.188
2.44,10.348
2.444,9.064
2.448,8.112
2.452,7.752
2.456,7.816
2.46,7.972
2.464,8.016
2.468,7.952
2.472,8.02
2.476,8.096
2.48,8.084
2.484,8.012
2.488,7.984
2.492,8.084
2.496,8.1
2.5,8.008
2.504,8.016
2.508,8.072
2.512,8.124
2.516,8.06
2.52,8.008
2.524,8.072
2.528,8.164
2.532,8.132
2.536,8.052
2.54,8.104
2.544,8.216
2.548,8.18
2.552,8.092
2.556,8.124
2.56,8.228
2.564,8.256
2.568,8.168
2.572,8.168
2.576,8.28
2.58,8.3
2.584,8.248
2.588,8.22
2.592,8.336
2.596,8.392
2.6,8.38
2.604,8.316
2.608,8.44
2.612,8.54
2.616,8.488
2.62,8.46
2.624,8.576
2.628,8.688
2.632,8.676
2.636,8.68
2.64,8.72
2.644,8.892
2.648,8.932
2.652,8.908
2.656,8.948
2.66,9.104
2.664,9.108
2.668,9.064
2.672,9.076
2.676,9.164
2.68,9.188
2.684,9.048
2.688,8.916
2.692,8.932
2.696,8.848
2.7,8.664
2.704,8.48
2.708,8.484
2.712,8.464
2.716,8.276
2.72,8.16
2.724,8.172
2.728,8.22
2.732,8.124
2.736,8.032
2.74,8.04
2.744,8.112
2.748,8.056
2.752,7.944
2.756,7.96
2.76,8.068
2.764,8.048
2.768,7.964
2.772,7.936
2.776,8.04
2.78,8.056
2.784,7.96
2.788,7.92
2.792,7.996
2.796,8.064
2.8,7.98
2.804,7.936
2.808,7.992
2.812,8.06
2.816,7.988
2.82,7.928
2.824,7.972
2.828,8.068
2.832,8.028
2.836,7.936
2.84,7.972
2.844,8.052
2.848,8.036
2.852,7.904
2.856,7.948
2.86,8.052
2.864,8.052
2.868,7.952
2.872,7.932
2.876,8.02
2.88,8.048
2.884,7.956
2.888,7.944
2.892,8.008
2.896,8.068
2.9,7.98
2.904,7.928
2.908,8
2.912,8.064
2.916,7.96
2.92,7.912
2.924,7.968
2.928,8.044
2.932,7.976
2.936,7.916
2.94,7.92
2.944,8.052
2.948,8
2.952,7.872
2.956,7.912
2.96,8.012
2.964,8.016
2.968,7.916
2.972,7.92
2.976,7.996
2.98,8.024
2.984,7.92
2.988,7.9
2.992,7.996
2.996,8.016
3,7.92
3.004,7.86
3.008,7.964
3.012,8.012
3.016,7.928
3.02,7.864
3.024,7.936
3.028,7.992
3.032,7.952
3.036,7.892
3.04,7.972
3.044,8.072
3.048,8.076
3.052,7.988
3.056,8.012
3.06,8.152
3.064,8.184
3.068,8.104
3.072,8.072
3.076,8.156
3.08,8.148
3.084,8.04
3.088,7.992
3.092,8.076
3.096,8.088
3.1,8.004
3.104,7.888
3.108,7.916
3.112,7.992
3.116,7.9
3.12,7.808
3.124,7.864
3.128,7.972
3.132,7.916
3.136,7.808
3.14,7.848
3.144,7.928
3.148,7.916
3.152,7.82
3.156,7.84
3.16,7.924
3.164,7.788
3.168,7.788
3.172,8.1
3.176,8.696
3.18,9.324
3.184,9.936
3.188,10.608
3.192,11.132
3.196,10.88
3.2,9.544
3.204,8.38
3.208,7.836
3.212,7.756
3.216,7.772
3.22,7.74
3.224,7.876
3.228,8.008
3.232,8.004
3.236,7.908
3.24,7.944
3.244,8.032
3.248,8.012
3.252,7.9
3.256,7.956
3.26,8.048
3.264,8.048
3.268,7.956
3.272,7.952
3.276,8.048
3.28,8.08
3.284,7.972
3.288,7.996
3.292,8.096
3.296,8.104
3.3,8.056
3.304,7.988
3.308,8.104
3.312,8.176
3.316,8.116
3.32,8.06
3.324,8.12
3.328,8.244
3.332,8.216
3.336,8.132
3.34,8.168
3.344,8.296
3.348,8.268
3.352,8.216
3.356,8.248
3.36,8.388
3.364,8.408
3.368,8.332
3.372,8.368
3.376,8.492
3.38,8.556
3.384,8.516
3.388,8.548
3.392,8.684
3.396,8.764
3.4,8.76
3.404,8.744
3.408,8.86
3.412,8.972
3.416,8.964
3.42,8.912
3.424,9.028
3.428,9.16
3.432,9.08
3.436,8.992
3.44,9.012
3.444,9.036
3.448,8.908
3.452,8.72
3.456,8.632
3.46,8.608
3.464,8.516
3.468,8.296
3.472,8.24
3.476,8.244
3.48,8.208
3.484,8.096
3.488,8.02
3.492,8.056
3.496,8.072
3.5,7.984
3.504,7.916
3.508,7.968
3.512,8.02
3.516,7.972
3.52,7.892
3.524,7.936
3.528,8.016
3.532,7.96
3.536,7.856
3.54,7.908
3.544,7.996
3.548,7.984
3.552,7.884
3.556,7.888
3.56,8.008
3.564,7.988
3.568,7.884
3.572,7.884
3.576,7.956
3.58,8.004
3.584,7.924
3.588,7.892
3.592,7.984
3.596,8.012
3.6,7.952
3.604,7.88
3.608,7.944
3.612,8.036
3.616,7.956
3.62,7.892
3.624,7.932
3.628,8.016
3.632,7.948
3.636,7.868
3.64,7.896
3.644,8
3.648,7.984
3.652,7.876
3.656,7.896
3.66,7.984
3.664,7.968
3.668,7.876
3.672,7.868
3.676,7.984
3.68,8
3.684,7.916
3.688,7.852
3.692,7.932
3.696,7.98
3.7,7.916
3.704,7.836
3.708,7.924
3.712,7.968
3.716,7.932
3.72,7.836
3.724,7.908
3.728,7.98
3.732,7.932
3.736,7.844
3.74,7.872
3.744,7.944
3.748,7.944
3.752,7.84
3.756,7.844
3.76,7.964
3.764,8.004
3.768,7.932
3.772,7.964
3.776,8.084
3.78,8.1
3.784,8.084
3.788,8.056
3.792,8.132
3.796,8.168
3.8,8.056
3.804,7.992
3.808,8.016
3.812,8.104
3.816,8.044
3.82,7.952
3.824,7.96
3.828,7.992
3.832,7.896
3.836,7.804
3.84,7.836
3.844,7.92
3.848,7.9
3.852,7.824
3.856,7.836
3.86,7.92
3.864,7.912
3.868,7.828
3.872,7.82
3.876,7.924
3.88,7.916
3.884,7.752
3.888,7.68
3.892,8.032
3.896,8.5
3.9,9.02
3.904,9.616
3.908,10.452
3.912,11.108
3.916,11.232
3.92,10.188
3.924,8.88
3.928,8.092
3.932,7.76
3.936,7.732
3.94,7.804
3.944,7.976
3.948,7.996
3.952,7.908
3.956,7.928
3.96,8.024
3.964,8.032
3.968,7.928
3.972,7.932
3.976,8.028
3.98,8.068
3.984,7.968
3.988,7.956
3.992,8.048
3.996,8.08
4,8.028
4.004,7.972
4.008,8.068
4.012,8.104
4.016,8.084
4.02,8.016
4.024,8.06
4.028,8.156
4.032,8.124
4.036,8.056
4.04,8.12
4.044,8.208
4.048,8.22
4.052,8.14
4.056,8.144
4.06,8.292
4.064,8.288
4.068,8.216
4.072,8.18
4.076,8.352
4.08,8.392
4.084,8.336
4.088,8.312
4.092,8.448
4.096,8.548
4.1,8.504
4.104,8.48
4.108,8.616
4.112,8.648
4.116,8.732
4.12,8.696
4.124,8.792
4.128,8.908
4.132,8.916
4.136,8.904
4.14,8.976
4.144,9.124
4.148,9.12
4.152,9.064
4.156,9.02
4.16,9.108
4.164,9.052
4.168,8.884
4.172,8.808
4.176,8.792
4.18,8.692
4.184,8.524
4.188,8.364
4.192,8.368
4.196,8.32
4.2,8.224
4.204,8.104
4.208,8.108
4.212,8.168
4.216,8.08
4.22,7.984
4.224,8.012
4.228,8.112
4.232,8.056
4.236,7.936
4.24,8
4.244,8.092
4.248,8.048
4.252,7.968
4.256,7.948
4.26,8.068
4.264,8.036
4.268,7.924
4.272,7.968
4.276,8.064
4.28,8.064
4.284,8.008
4.288,7.948
4.292,8.04
4.296,8.1
4.3,8
4.304,7.968
4.308,8.012
4.312,8.104
4.316,8.032
4.32,7.932
4.324,7.988
4.328,8.104
4.332,8.068
4.336,7.968
4.34,8
4.344,8.096
4.348,8.06
4.352,7.976
4.356,7.976
4.36,8.084
4.364,8.088
4.368,7.996
4.372,7.988
4.376,8.06
4.38,8.104
4.384,7.996
4.388,7.952
4.392,8.052
4.396,8.104
4.4,8.02
4.404,7.96
4.408,8.032
4.412,8.104
4.416,8.004
4.42,7.956
4.424,7.984
4.428,8.088
4.432,8.028
4.436,7.972
4.44,7.96
4.444,8.072
4.448,8.036
4.452,7.976
4.456,7.992
4.46,8.048
4.464,8.072
4.468,7.976
4.472,7.968
4.476,8.012
4.48,8.02
4.484,8.004
4.488,7.916
4.492,8.02
4.496,8.084
4.5,7.98
4.504,7.936
4.508,8.028
4.512,8.108
4.516,8.056
4.52,8.032
4.524,8.088
4.528,8.208
4.532,8.184
4.536,8.112
4.54,8.164
4.544,8.284
4.548,8.232
4.552,8.148
4.556,8.128
4.56,8.196
4.564,8.184
4.568,8.088
4.572,8.052
4.576,8.116
4.58,8.108
4.584,7.992
4.588,7.916
4.592,7.992
4.596,8.032
4.6,7.96
4.604,7.908
4.608,7.936
4.612,8.036
4.616,7.984
4.62,7.896
4.624,7.932
4.628,8.036
4.632,7.988
4.636,7.888
4.64,7.816
4.644,7.984
4.648,8.3
4.652,8.696
4.656,9.268
4.66,10.032
4.664,10.808
4.668,11.244
4.672,11.044
4.676,9.792
4.68,8.548
4.684,7.9
4.688,7.844
4.692,7.98
4.696,8.044
4.7,8.048
4.704,7.992
4.708,8.104
4.712,8.184
4.716,8.1
4.72,8.016
4.724,8.052
4.728,8.176
4.732,8.116
4.736,8.048
4.74,8.076
4.744,8.172
4.748,8.156
4.752,8.068
4.756,8.08
4.76,8.2
4.764,8.188
4.768,8.108
4.772,8.12
4.776,8.208
4.78,8.212
4.784,8.172
4.788,8.132
4.792,8.232
4.796,8.32
4.8,8.248
4.804,8.184
4.808,8.296
4.812,8.368
4.816,8.324
4.82,8.272
4.824,8.336
4.828,8.436
4.832,8.444
4.836,8.38
4.84,8.412
4.844,8.552
4.848,8.572
4.852,8.492
4.856,8.54
4.86,8.68
4.864,8.756
4.868,8.704
4.872,8.764
4.876,8.88
4.88,8.96
4.884,8.956
4.888,8.956
4.892,9.096
4.896,9.208
4.9,9.176
4.904,9.14
4.908,9.18
4.912,9.26
4.916,9.176
4.92,9.04
4.924,9.012
4.928,8.992
4.932,8.844
4.936,8.644
4.94,8.564
4.944,8.568
4.948,8.484
4.952,8.268
4.956,8.256
4.96,8.304
4.964,8.284
4.968,8.116
4.972,8.104
4.976,8.172
4.98,8.18
4.984,8.084
4.988,8.036
4.992,8.088
4.996,8.176
5,8.096
5.004,8.028
5.008,8.068
5.012,8.132
5.016,8.056
5.02,8.012
5.024,8.052
5.028,8.16
5.032,8.1
5.036,8.008
5.04,8.04
5.044,8.108
5.048,8.112
5.052,8
5.056,8.028
5.06,8.14
5.064,8.128
5.068,8.048
5.072,7.992
5.076,8.132
5.08,8.116
5.084,8.048
5.088,8.044
5.092,8.12
5.096,8.164
5.1,8.108
5.104,8.036
5.108,8.092
5.112,8.136
5.116,8.1
5.12,8.024
5.124,8.056
5.128,8.16
5.132,8.108
5.136,8.02
5.14,8.024
5.144,8.128
5.148,8.108
5.152,8.008
5.156,8.02
5.16,8.112
5.164,8.12
5.168,8.044
5.172,8.02
5.176,8.112
5.18,8.132
5.184,8.044
5.188,7.992
5.192,8.072
5.196,8.112
5.2,8.064
5.204,7.996
5.208,8.044
5.212,8.112
5.216,8.056
5.22,7.976
5.224,8.028
5.228,8.124
5.232,8.096
5.236,7.968
5.24,8.012
5.244,8.12
5.248,8.076
5.252,7.976
5.256,8.008
5.26,8.112
5.264,8.084
5.268,7.98
5.272,7.988
5.276,8.068
5.28,8.112
5.284,8.036
5.288,8
5.292,8.108
5.296,8.192
5.3,8.144
5.304,8.104
5.308,8.16
5.312,8.276
5.316,8.236
5.32,8.212
5.324,8.224
5.328,8.28
5.332,8.24
5.336,8.116
5.34,8.1
5.344,8.212
5.348,8.172
5.352,8.084
5.356,8.064
5.36,8.132
5.364,8.104
5.368,7.964
5.372,7.944
5.376,8.012
5.38,8.06
5.384,7.956
5.388,7.924
5.392,8
5.396,8.052
5.4,8.016
5.404,7.944
5.408,8.008
5.412,8.076
5.416,7.96
5.42,7.824
5.424,8.112
5.428,8.56
5.432,9.04
5.436,9.576
5.44,10.344
5.444,11.092
5.448,11.376
5.452,10.448
5.456,9.076
5.46,8.252
5.464,7.976
5.468,7.9
5.472,7.928
5.476,8.064
5.48,8.148
5.484,8.088
5.488,8.08
5.492,8.144
5.496,8.188
5.5,8.12
5.504,8.048
5.508,8.096
5.512,8.192
5.516,8.144
5.52,8.08
5.524,8.116
5.528,8.228
5.532,8.184
5.536,8.096
5.54,8.144
5.544,8.232
5.548,8.24
5.552,8.172
5.556,8.164
5.56,8.272
5.564,8.276
5.568,8.224
5.572,8.188
5.576,8.324
5.58,8.352
5.584,8.304
5.588,8.264
5.592,8.344
5.596,8.4
5.6,8.34
5.604,8.312
5.608,8.412
5.612,8.516
5.616,8.48
5.62,8.456
5.624,8.496
5.628,8.652
5.632,8.628
5.636,8.58
5.64,8.656
5.644,8.792
5.648,8.852
5.652,8.828
5.656,8.884
5.66,9.02
5.664,9.072
5.668,9.036
5.672,9.052
5.676,9.208
5.68,9.272
5.684,9.208
5.688,9.172
5.692,9.24
5.696,9.228
5.7,9.104
5.704,8.956
5.708,8.876
5.712,8.876
5.716,8.688
5.72,8.504
5.724,8.48
5.728,8.48
5.732,8.392
5.736,8.236
5.74,8.208
5.744,8.292
5.748,8.216
5.752,8.088
5.756,8.1
5.76,8.196
5.764,8.18
5.768,8.064
5.772,8.044
5.776,8.112
5.78,8.148
5.784,8.084
5.788,8.04
5.792,8.112
5.796,8.144
5.8,8.096
5.804,8.028
5.808,8.08
5.812,8.172
5.816,8.116
5.82,8.02
5.824,8.068
5.828,8.144
5.832,8.128
5.836,8.04
5.84,8.06
5.844,8.16
5.848,8.144
5.852,8.068
5.856,8.036
5.86,8.124
5.864,8.132
5.868,8.048
5.872,8.06
5.876,8.152
5.88,8.144
5.884,8.096
5.888,8.052
5.892,8.1
5.896,8.16
5.9,8.132
5.904,8.024
5.908,8.096
5.912,8.204
5.916,8.108
5.92,8.032
5.924,8.048
5.928,8.14
5.932,8.124
5.936,8.04
5.94,8.06
5.944,8.14
5.948,8.148
5.952,8.052
5.956,8.008
5.96,8.088
5.964,8.136
5.968,8.056
5.972,8.004
5.976,8.092
5.98,8.14
5.984,8.044
5.988,7.984
5.992,8.048
5.996,8.12
6,8.052
6.004,7.984
6.008,8.044
6.012,8.124
6.016,8.072
6.02,7.988
6.024,8.02
6.028,8.112
6.032,8.08
6.036,7.98
6.04,8.02
6.044,8.108
6.048,8.076
6.052,7.984
6.056,8
6.06,8.116
6.064,8.144
6.068,8.084
6.072,8.072
6.076,8.16
6.08,8.236
6.084,8.164
6.088,8.18
6.092,8.256
6.096,8.328
6.1,8.196
6.104,8.16
6.108,8.18
6.112,8.236
6.116,8.172
6.12,8.076
6.124,8.088
6.128,8.124
6.132,8.092
6.136,7.984
6.14,7.936
6.144,8.028
6.148,8.028
6.152,7.94
6.156,7.928
6.16,8.024
6.164,8.016
6.168,7.932
6.172,7.924
6.176,8.028
6.18,8.06
6.184,7.948
6.188,7.8
6.192,7.924
6.196,8.296
6.2,8.716
6.204,9.22
6.208,9.968
6.212,10.784
6.216,11.188
6.22,10.94
6.224,9.744
6.228,8.692
6.232,8.052
6.236,7.744
6.24,7.856
6.244,7.988
6.248,8.008
6.252,7.976
6.256,8.012
6.26,8.12
6.264,8.132
6.268,8.004
6.272,8.056
6.276,8.104
6.28,8.164
6.284,8.052
6.288,8.036
6.292,8.12
6.296,8.16
6.3,8.096
6.304,8.04
6.308,8.14
6.312,8.228
6.316,8.14
6.32,8.06
6.324,8.128
6.328,8.228
6.332,8.216
6.336,8.116
6.34,8.184
6.344,8.3
6.348,8.296
6.352,8.172
6.356,8.216
6.36,8.336
6.364,8.336
6.368,8.284
6.372,8.292
6.376,8.412
6.38,8.432
6.384,8.4
6.388,8.384
6.392,8.492
6.396,8.588
6.4,8.552
6.404,8.5
6.408,8.64
6.412,8.732
6.416,8.78
6.42,8.732
6.424,8.82
6.428,8.96
6.432,9.016
6.436,8.952
6.44,9.028
6.444,9.156
6.448,9.164
6.452,9.104
6.456,9.116
6.46,9.208
6.464,9.196
6.468,9.076
6.472,8.936
6.476,8.916
6.48,8.864
6.484,8.656
6.488,8.516
6.492,8.492
6.496,8.484
6.5,8.336
6.504,8.196
6.508,8.24
6.512,8.256
6.516,8.176
6.52,8.04
6.524,8.088
6.528,8.172
6.532,8.104
6.536,8.032
6.54,8.044
6.544,8.14
6.548,8.08
6.552,7.988
6.556,8.016
6.56,8.104
6.564,8.116
6.568,8.048
6.572,8.012
6.576,8.06
6.58,8.124
6.584,8.016
6.588,7.976
6.592,8.06
6.596,8.128
6.6,8.072
6.604,7.988
6.608,8.044
6.612,8.132
6.616,8.076
6.62,8.004
6.624,8.036
6.628,8.136
6.632,8.076
6.636,7.992
6.64,8.008
6.644,8.136
6.648,8.088
6.652,7.988
6.656,7.984
6.66,8.1
6.664,8.096
6.668,8.016
6.672,7.956
6.676,8.084
6.68,8.104
6.684,7.992
6.688,7.976
6.692,8.048
6.696,8.108
6.7,8.036
6.704,7.976
6.708,7.992
6.712,8.092
6.716,8.024
6.72,7.956
6.724,7.98
6.728,8.096
6.732,8.076
6.736,7.932
6.74,7.956
6.744,8.052
6.748,8.016
6.752,7.932
6.756,7.98
6.76,8.052
6.764,8.08
6.768,7.992
6.772,7.98
6.776,8.1
6.78,8.124
6.784,8.08
6.788,8.06
6.792,8.156
6.796,8.228
6.8,8.212
6.804,8.14
6.808,8.176
6.812,8.228
6.816,8.168
6.82,8.08
6.824,8.108
6.828,8.2
6.832,8.168
6.836,8.012
6.84,8.012
6.844,8.076
6.848,8.04
6.852,7.936
6.856,7.916
6.86,8.024
6.864,8.028
6.868,7.936
6.872,7.904
6.876,8
6.88,8.016
6.884,7.94
6.888,7.912
6.892,7.948
6.896,7.988
6.9,7.832
6.904,7.884
6.908,8.304
6.912,8.936
6.916,9.512
6.92,10.164
6.924,10.912
6.928,11.432
6.932,10.86
6.936,9.444
6.94,8.348
6.944,7.992
6.948,7.864
6.952,7.848
6.956,7.892
6.96,8.064
6.964,8.108
6.968,8.028
6.972,8.02
6.976,8.116
6.98,8.14
6.984,8.056
6.988,7.996
6.992,8.108
6.996,8.164
7,8.088
7.004,8.048
7.008,8.092
7.012,8.204
7.016,8.172
7.02,8.084
7.024,8.152
7.028,8.248
7.032,8.212
7.036,8.1
7.04,8.144
7.044,8.292
7.048,8.264
7.052,8.168
7.056,8.192
7.06,8.304
7.064,8.296
7.068,8.232
7.072,8.232
7.076,8.34
7.08,8.396
7.084,8.352
7.088,8.332
7.092,8.424
7.096,8.5
7.1,8.48
7.104,8.44
7.108,8.528
7.112,8.624
7.116,8.628
7.12,8.604
7.124,8.7
7.128,8.84
7.132,8.852
7.136,8.808
7.14,8.9
7.144,9.048
7.148,9.072
7.152,9.024
7.156,9.072
7.16,9.196
7.164,9.216
7.168,9.128
7.172,9.088
7.176,9.16
7.18,9.108
7.184,8.92
7.188,8.784
7.192,8.736
7.196,8.704
7.2,8.548
7.204,8.404
7.208,8.376
7.212,8.396
7.216,8.268
7.22,8.14
7.224,8.172
7.228,8.224
7.232,8.168
7.236,8.072
7.24,8.092
7.244,8.16
7.248,8.148
7.252,8.048
7.256,8.032
7.26,8.136
7.264,8.12
7.268,8.032
7.272,8.032
7.276,8.096
7.28,8.152
7.284,8.044
7.288,8.028
7.292,8.108
7.296,8.164
7.3,8.096
7.304,8.008
7.308,8.06
7.312,8.144
7.316,8.1
7.32,8.016
7.324,8.068
7.328,8.18
7.332,8.124
7.336,8.004
7.34,8.072
7.344,8.172
7.348,8.144
7.352,8.044
7.356,8.04
7.36,8.136
7.364,8.148
7.368,8.072
7.372,8.052
7.376,8.132
7.38,8.168
7.384,8.08
7.388,8.024
7.392,8.128
7.396,8.152
7.4,8.104
7.404,8.032
7.408,8.072
7.412,8.184
7.416,8.112
7.42,8.048
7.424,8.076
7.428,8.152
7.432,8.12
7.436,8.028
7.44,8.06
7.444,8.144
7.448,8.14
7.452,8.02
7.456,8.048
7.46,8.14
7.464,8.144
7.468,8.032
7.472,8.02
7.476,8.104
7.48,8.144
7.484,8.064
7.488,8.008
7.492,8.12
7.496,8.172
7.5,8.112
7.504,8.088
7.508,8.176
7.512,8.276
7.516,8.244
7.52,8.164
7.524,8.256
7.528,8.32
7.532,8.28
7.536,8.172
7.54,8.172
7.544,8.26
7.548,8.232
7.552,8.116
7.556,8.096
7.56,8.18
7.564,8.14
7.568,8.012
7.572,7.956
7.576,8.068
7.58,8.08
7.584,8
7.588,7.948
7.592,8.012
7.596,8.08
7.6,8.016
7.604,7.944
7.608,8.012
7.612,8.1
7.616,8.036
7.62,7.88
7.624,7.904
7.628,8.208
7.632,8.564
7.636,9.008
7.64,9.656
7.644,10.504
7.648,11.156
7.652,11.36
7.656,10.54
7.66,9.24
7.664,8.288
7.668,7.924
7.672,7.908
7.676,8.084
7.68,8.148
7.684,8.104
7.688,8.064
7.692,8.152
7.696,8.204
7.7,8.148
7.704,8.068
7.708,8.116
7.712,8.228
7.716,8.156
7.72,8.064
7.724,8.12
7.728,8.236
7.732,8.192
7.736,8.096
7.74,8.164
7.744,8.268
7.748,8.26
7.752,8.156
7.756,8.152
7.76,8.272
7.764,8.296
7.768,8.224
7.772,8.204
7.776,8.328
7.78,8.352
7.784,8.296
7.788,8.268
7.792,8.356
7.796,8.412
7.8,8.372
7.804,8.328
7.808,8.432
7.812,8.508
7.816,8.484
7.82,8.444
7.824,8.508
7.828,8.64
7.832,8.632
7.836,8.548
7.84,8.624
7.844,8.788
7.848,8.844
7.852,8.784
7.856,8.832
7.86,9
7.864,9.068
7.868,9.008
7.872,9.056
7.876,9.184
7.88,9.24
7.884,9.204
7.888,9.18
7.892,9.292
7.896,9.304
7.9,9.216
7.904,9.044
7.908,9.012
7.912,8.976
7.916,8.824
7.92,8.648
7.924,8.572
7.928,8.6
7.932,8.488
7.936,8.324
7.94,8.292
7.944,8.364
7.948,8.284
7.952,8.176
7.956,8.132
7.96,8.22
7.964,8.224
7.968,8.116
7.972,8.092
7.976,8.152
7.98,8.212
7.984,8.124
7.988,8.08
7.992,8.156
7.996,8.2
8,8.132
8.004,8.044
8.008,8.12
8.012,8.22
8.016,8.148
8.02,8.06
8.024,8.116
8.028,8.204
8.032,8.192
8.036,8.068
8.04,8.116
8.044,8.212
8.048,8.192
8.052,8.084
8.056,8.092
8.06,8.192
8.064,8.2
8.068,8.116
8.072,8.096
8.076,8.192
8.08,8.208
8.084,8.14
8.088,8.088
8.092,8.164
8.096,8.228
8.1,8.132
8.104,8.088
8.108,8.16
8.112,8.244
8.116,8.152
8.12,8.072
8.124,8.124
8.128,8.228
8.132,8.168
8.136,8.096
8.14,8.108
8.144,8.232
8.148,8.2
8.152,8.072
8.156,8.06
8.16,8.176
8.164,8.172
8.168,8.096
8.172,8.06
8.176,8.168
8.18,8.18
8.184,8.112
8.188,8.072
8.192,8.136
8.196,8.184
8.2,8.116
8.204,8.072
8.208,8.12
8.212,8.192
8.216,8.152
8.22,8.032
8.224,8.092
8.228,8.208
8.232,8.148
8.236,8.056
8.24,8.076
8.244,8.196
8.248,8.216
8.252,8.12
8.256,8.148
8.26,8.256
8.264,8.308
8.268,8.236
8.272,8.236
8.276,8.368
8.28,8.38
8.284,8.276
8.288,8.204
8.292,8.268
8.296,8.308
8.3,8.24
8.304,8.164
8.308,8.196
8.312,8.22
8.316,8.112
8.32,8
8.324,8.012
8.328,8.152
8.332,8.112
8.336,8.02
8.34,8.02
8.344,8.14
8.348,8.1
8.352,8.024
8.356,7.996
8.36,8.116
8.364,8.144
8.368,8
8.372,7.904
8.376,8.036
8.38,8.336
8.384,8.7
8.388,9.176
8.392,9.884
8.396,10.728
8.4,11.236
8.404,11.216
8.408,10.124
8.412,8.924
8.416,8.14
8.42,7.864
8.424,7.972
8.428,8.1
8.432,8.132
8.436,8.092
8.44,8.156
8.444,8.264
8.448,8.208
8.452,8.1
8.456,8.1
8.46,8.192
8.464,8.2
8.468,8.128
8.472,8.1
8.476,8.188
8.48,8.244
8.484,8.16
8.488,8.128
8.492,8.224
8.496,8.292
8.5,8.232
8.504,8.168
8.508,8.216
8.512,8.328
8.516,8.252
8.52,8.204
8.524,8.264
8.528,8.384
8.532,8.34
8.536,8.26
8.54,8.28
8.544,8.424
8.548,8.412
8.552,8.316
8.556,8.344
8.56,8.476
8.564,8.5
8.568,8.468
8.572,8.436
8.576,8.568
8.58,8.636
8.584,8.584
8.588,8.58
8.592,8.712
8.596,8.82
8.6,8.784
8.604,8.764
8.608,8.884
8.612,9.004
8.616,9.032
8.62,8.968
8.624,9.08
8.628,9.224
8.632,9.212
8.636,9.132
8.64,9.164
8.644,9.264
8.648,9.256
8.652,9.096
8.656,9.012
8.66,9.012
8.664,8.94
8.668,8.748
8.672,8.608
8.676,8.568
8.68,8.516
8.684,8.388
8.688,8.284
8.692,8.28
8.696,8.324
8.7,8.192
8.704,8.1
8.708,8.144
8.712,8.224
8.716,8.144
8.72,8.04
8.724,8.084
8.728,8.184
8.732,8.128
8.736,8.024
8.74,8.072
8.744,8.144
8.748,8.132
8.752,8.016
8.756,8.028
8.76,8.136
8.764,8.16
8.768,8.04
8.772,8.012
8.776,8.1
8.78,8.136
8.784,8.056
8.788,8.024
8.792,8.108
8.796,8.164
8.8,8.076
8.804,8.004
8.808,8.092
8.812,8.136
8.816,8.132
8.82,8.012
8.824,8.072
8.828,8.168
8.832,8.124
8.836,8.004
8.84,8.06
8.844,8.148
8.848,8.144
8.852,8.012
8.856,8.04
8.86,8.12
8.864,8.148
8.868,8.032
8.872,8.008
8.876,8.064
8.88,8.1
8.884,8.04
8.888,7.988
8.892,8.064
8.896,8.1
8.9,8.032
8.904,7.96
8.908,8.016
8.912,8.116
8.916,8.024
8.92,7.94
8.924,8.012
8.928,8.096
8.932,8.072
8.936,7.972
8.94,7.964
8.944,8.064
8.948,8.052
8.952,7.956
8.956,7.948
8.96,8.06
8.964,8.084
8.968,7.972
8.972,7.94
8.976,8.04
8.98,8.088
8.984,7.996
8.988,7.948
8.992,8.012
8.996,8.076
9,8.004
9.004,7.952
9.008,8.06
9.012,8.14
9.016,8.1
9.02,8.04
9.024,8.108
9.028,8.232
9.032,8.256
9.036,8.164
9.04,8.156
9.044,8.244
9.048,8.216
9.052,8.096
9.056,8.092
9.06,8.176
9.064,8.148
9.068,8.052
9.072,7.988
9.076,8.048
9.08,8.048
9.084,7.968
9.088,7.892
9.092,7.972
9.096,8.012
9.1,7.952
9.104,7.856
9.108,7.928
9.112,8.02
9.116,7.98
9.12,7.912
9.124,7.952
9.128,7.988
9.132,7.888
9.136,7.8
9.14,8.152
9.144,8.712
9.148,9.308
9.152,9.92
9.156,10.664
9.16,11.208
9.164,11.024
9.168,9.764
9.172,8.584
9.176,8.008
9.18,7.832
9.184,7.848
9.188,7.824
9.192,7.964
9.196,8.072
9.2,8.032
9.204,7.98
9.208,8.044
9.212,8.148
9.216,8.072
9.22,7.992
9.224,8.032
9.228,8.144
9.232,8.12
9.236,8.008
9.24,8.028
9.244,8.132
9.248,8.14
9.252,8.072
9.256,8.1
9.26,8.18
9.264,8.168
9.268,8.116
9.272,8.084
9.276,8.196
9.28,8.236
9.284,8.192
9.288,8.172
9.292,8.232
9.296,8.304
9.3,8.244
9.304,8.196
9.308,8.28
9.312,8.404
9.316,8.38
9.32,8.284
9.324,8.352
9.328,8.48
9.332,8.444
9.336,8.392
9.34,8.456
9.344,8.576
9.348,8.648
9.352,8.564
9.356,8.6
9.36,8.764
9.364,8.816
9.368,8.812
9.372,8.828
9.376,8.976
9.38,9.064
9.384,9.016
9.388,9.016
9.392,9.124
9.396,9.208
9.4,9.16
9.404,9.052
9.408,9.112
9.412,9.156
9.416,8.984
9.42,8.788
9.424,8.728
9.428,8.712
9.432,8.564
9.436,8.38
9.44,8.324
9.444,8.352
9.448,8.3
9.452,8.152
9.456,8.064
9.46,8.168
9.464,8.14
9.468,8.028
9.472,7.992
9.476,8.052
9.48,8.12
9.484,8
9.488,7.944
9.492,8.04
9.496,8.088
9.5,8.008
9.504,7.964
9.508,7.988
9.512,8.096
9.516,8.032
9.52,7.956
9.524,7.98
9.528,8.072
9.532,8.036
9.536,7.956
9.54,7.96
9.544,8.084
9.548,8.072
9.552,7.968
9.556,7.988
9.56,8.06
9.564,8.08
9.568,8
9.572,7.98
9.576,8.036
9.58,8.092
9.584,8.008
9.588,7.956
9.592,8.008
9.596,8.1
9.6,8.036
9.604,7.94
9.608,8.02
9.612,8.108
9.616,8.048
9.62,7.936
9.624,7.984
9.628,8.088
9.632,8.016
9.636,7.924
9.64,7.964
9.644,8.076
9.648,8.052
9.652,7.948
9.656,7.952
9.66,8.032
9.664,8.048
9.668,7.968
9.672,7.948
9.676,8.048
9.68,8.076
9.684,7.992
9.688,7.972
9.692,7.988
9.696,8.064
9.7,7.996
9.704,7.932
9.708,7.976
9.712,8.08
9.716,8.004
9.72,7.912
9.724,7.956
9.728,8.048
9.732,8.06
9.736,7.98
9.74,8.016
9.744,8.14
9.748,8.152
9.752,8.068
9.756,8.1
9.76,8.224
9.764,8.264
9.768,8.152
9.772,8.1
9.776,8.176
9.78,8.184
9.784,8.088
9.788,8.04
9.792,8.112
9.796,8.14
9.8,8.06
9.804,7.944
9.808,7.96
9.812,8.02
9.816,7.98
9.82,7.888
9.824,7.932
9.828,8.02
9.832,7.984
9.836,7.884
9.84,7.932
9.844,8.008
9.848,8.008
9.852,7.896
9.856,7.872
9.86,7.892
9.864,7.972
9.868,8.224
9.872,8.708
9.876,9.396
9.88,10.116
9.884,10.764
9.888,11.228
9.892,11.04
9.896,9.82
9.9,8.568
9.904,7.888
9.908,7.824
9.912,7.992
9.916,7.968
9.92,7.944
9.924,8.004
9.928,8.148
9.932,8.108
9.936,8.036
9.94,8.06
9.944,8.156
9.948,8.112
9.952,8.04
9.956,8.024
9.96,8.152
9.964,8.144
9.968,8.08
9.972,8.076
9.976,8.164
9.98,8.192
9.984,8.128
9.988,8.104
9.992,8.148
9.996,8.232
10,8.176
10.004,8.14
10.008,8.18
10.012,8.292
10.016,8.252
10.02,8.18
10.024,8.204
10.028,8.348
10.032,8.336
10.036,8.252
10.04,8.296
10.044,8.412
10.048,8.424
10.052,8.348
10.056,8.368
10.06,8.492
10.064,8.552
10.068,8.5
10.072,8.508
10.076,8.652
10.08,8.692
10.084,8.684
10.088,8.688
10.092,8.796
10.096,8.932
10.1,8.908
10.104,8.884
10.108,8.996
10.112,9.12
10.116,9.104
10.12,9.084
10.124,9.132
10.128,9.244
10.132,9.2
10.136,9.068
10.14,9.048
10.144,9.08
10.148,8.94
10.152,8.74
10.156,8.624
10.16,8.596
10.164,8.516
10.168,8.348
10.172,8.268
10.176,8.3
10.18,8.304
10.184,8.184
10.188,8.092
10.192,8.144
10.196,8.172
10.2,8.108
10.204,8.052
10.208,8.076
10.212,8.184
10.216,8.104
10.22,8.016
10.224,8.056
10.228,8.144
10.232,8.108
10.236,8.012
10.24,8.048
10.244,8.136
10.248,8.104
10.252,8.032
10.256,8.032
10.26,8.124
10.264,8.136
10.268,8.04
10.272,8.044
10.276,8.112
10.28,8.136
10.284,8.088
10.288,8.04
10.292,8.1
10.296,8.168
10.3,8.112
10.304,8.048
10.308,8.104
10.312,8.168
10.316,8.132
10.32,8.04
10.324,8.08
10.328,8.192
10.332,8.128
10.336,8.04
10.34,8.068
10.344,8.148
10.348,8.112
10.352,8.052
10.356,8.02
10.36,8.136
10.364,8.148
10.368,8.084
10.372,8.028
10.376,8.104
10.38,8.136
10.384,8.064
10.388,8.032
10.392,8.104
10.396,8.168
10.4,8.096
10.404,8.024
10.408,8.076
10.412,8.16
10.416,8.104
10.42,8
10.424,8.064
10.428,8.156
10.432,8.128
10.436,8.052
10.44,8.036
10.444,8.144
10.448,8.124
10.452,8.044
10.456,8.016
10.46,8.14
10.464,8.124
10.468,8.036
10.472,8.012
10.476,8.108
10.48,8.156
10.484,8.084
10.488,8.056
10.492,8.192
10.496,8.26
10.5,8.172
10.504,8.132
10.508,8.2
10.512,8.324
10.516,8.268
10.52,8.232
10.524,8.244
10.528,8.332
10.532,8.264
10.536,8.152
10.54,8.172
10.544,8.252
10.548,8.22
10.552,8.108
10.556,8.072
10.56,8.14
10.564,8.12
10.568,8.036
10.572,7.976
10.576,8.052
10.58,8.1
10.584,8.032
10.588,7.96
10.592,8.072
10.596,8.128
10.6,8.064
10.604,7.996
10.608,8.028
10.612,8.104
10.616,7.956
10.62,7.936
10.624,8.276
10.628,8.84
10.632,9.368
10.636,9.968
10.64,10.732
10.644,11.348
10.648,11.228
10.652,9.9
10.656,8.604
10.66,8.124
10.664,8.028
10.668,8.008
10.672,8
10.676,8.12
10.68,8.224
10.684,8.16
10.688,8.112
10.692,8.176
10.696,8.24
10.7,8.156
10.704,8.108
10.708,8.156
10.712,8.24
10.716,8.192
10.72,8.12
10.724,8.164
10.728,8.28
10.732,8.232
10.736,8.164
10.74,8.168
10.744,8.276
10.748,8.28
10.752,8.2
10.756,8.204
10.76,8.292
10.764,8.332
10.768,8.248
10.772,8.248
10.776,8.336
10.78,8.408
10.784,8.332
10.788,8.288
10.792,8.396
10.796,8.46
10.8,8.4
10.804,8.348
10.808,8.468
10.812,8.56
10.816,8.528
10.82,8.492
10.824,8.56
10.828,8.704
10.832,8.688
10.836,8.652
10.84,8.712
10.844,8.876
10.848,8.9
10.852,8.876
10.856,8.936
10.86,9.084
10.864,9.124
10.868,9.108
10.872,9.112
10.876,9.26
10.88,9.304
10.884,9.26
10.888,9.196
10.892,9.24
10.896,9.248
10.9,9.104
10.904,8.936
10.908,8.86
10.912,8.836
10.916,8.7
10.92,8.512
10.924,8.468
10.928,8.512
10.932,8.384
10.936,8.248
10.94,8.212
10.944,8.288
10.948,8.252
10.952,8.144
10.956,8.132
10.96,8.204
10.964,8.216
10.968,8.112
10.972,8.092
10.976,8.156
10.98,8.188
10.984,8.116
10.988,8.06
10.992,8.136
10.996,8.192
11,8.112
11.004,8.064
11.008,8.116
11.012,8.176
11.016,8.144
11.02,8.084
11.024,8.104
11.028,8.212
11.032,8.184
11.036,8.072
11.04,8.088
11.044,8.208
11.048,8.192
11.052,8.096
11.056,8.084
11.06,8.192
11.064,8.192
11.068,8.108
11.072,8.096
11.076,8.184
11.08,8.204
11.084,8.116
11.088,8.096
11.092,8.168
11.096,8.192
11.1,8.148
11.104,8.08
11.108,8.112
11.112,8.204
11.116,8.156
11.12,8.096
11.124,8.088
11.128,8.188
11.132,8.148
11.136,8.06
11.14,8.08
11.144,8.176
11.148,8.164
11.152,8.08
11.156,8.08
11.16,8.164
11.164,8.188
11.168,8.08
11.172,8.048
11.176,8.12
11.18,8.164
11.184,8.096
11.188,8.032
11.192,8.128
11.196,8.152
11.2,8.1
11.204,8.052
11.208,8.096
11.212,8.188
11.216,8.112
11.22,8.036
11.224,8.056
11.228,8.144
11.232,8.112
11.236,8.024
11.24,8.064
11.244,8.16
11.248,8.16
11.252,8.068
11.256,8.1
11.26,8.192
11.264,8.216
11.268,8.184
11.272,8.164
11.276,8.3
11.28,8.34
11.284,8.296
11.288,8.216
11.292,8.26
11.296,8.332
11.3,8.228
11.304,8.14
11.308,8.16
11.312,8.26
11.316,8.184
11.32,8.048
11.324,8.04
11.328,8.14
11.332,8.076
11.336,7.988
11.34,8.004
11.344,8.08
11.348,8.08
11.352,7.976
11.356,7.968
11.36,8.056
11.364,8.072
11.368,8.004
11.372,7.972
11.376,8.02
11.38,7.972
11.384,8.008
11.388,8.288
11.392,8.84
11.396,9.456
11.4,10.124
11.404,10.756
11.408,11.272
11.412,11.084
11.416,9.756
11.42,8.512
11.424,7.996
11.428,7.948
11.432,7.992
11.436,7.948
11.44,7.992
11.444,8.172
11.448,8.168
11.452,8.096
11.456,8.084
11.46,8.18
11.464,8.212
11.468,8.084
11.472,8.084
11.476,8.164
11.48,8.204
11.484,8.16
11.488,8.076
11.492,8.164
11.496,8.248
11.5,8.184
11.504,8.128
11.508,8.208
11.512,8.3
11.516,8.252
11.52,8.164
11.524,8.216
11.528,8.34
11.532,8.288
11.536,8.248
11.54,8.288
11.544,8.38
11.548,8.356
11.552,8.308
11.556,8.304
11.56,8.428
11.564,8.464
11.568,8.408
11.572,8.388
11.576,8.508
11.58,8.584
11.584,8.544
11.588,8.508
11.592,8.624
11.596,8.72
11.6,8.728
11.604,8.692
11.608,8.812
11.612,8.94
11.616,8.944
11.62,8.908
11.624,9.016
11.628,9.156
11.632,9.136
11.636,9.104
11.64,9.16
11.644,9.272
11.648,9.296
11.652,9.224
11.656,9.132
11.66,9.184
11.664,9.108
11.668,8.936
11.672,8.792
11.676,8.76
11.68,8.708
11.684,8.528
11.688,8.4
11.692,8.376
11.696,8.412
11.7,8.272
11.704,8.18
11.708,8.196
11.712,8.28
11.716,8.188
11.72,8.056
11.724,8.08
11.728,8.184
11.732,8.128
11.736,8.044
11.74,8.052
11.744,8.16
11.748,8.144
11.752,8.024
11.756,8.044
11.76,8.152
11.764,8.156
11.768,8.056
11.772,8.04
11.776,8.124
11.78,8.164
11.784,8.092
11.788,8.036
11.792,8.088
11.796,8.164
11.8,8.072
11.804,8.04
11.808,8.088
11.812,8.172
11.816,8.12
11.82,8.036
11.824,8.06
11.828,8.172
11.832,8.136
11.836,8.04
11.84,8.036
11.844,8.16
11.848,8.14
11.852,8.036
11.856,8.052
11.86,8.124
11.864,8.12
11.868,8.056
11.872,8.028
11.876,8.112
11.88,8.144
11.884,8.064
11.888,8.02
11.892,8.072
11.896,8.14
11.9,8.076
11.904,8.02
11.908,8.068
11.912,8.112
11.916,8.08
11.92,8.008
11.924,8.04
11.928,8.124
11.932,8.096
11.936,7.98
11.94,7.992
11.944,8.112
11.948,8.1
11.952,7.988
11.956,7.992
11.96,8.1
11.964,8.112
11.968,8.052
11.972,7.996
11.976,8.088
11.98,8.1
11.984,8.056
11.988,8
11.992,8.088
11.996,8.176
12,8.124
12.004,8.084
12.008,8.164
12.012,8.252
12.016,8.216
12.02,8.188
12.024,8.236
12.028,8.284
12.032,8.252
12.036,8.136
12.04,8.16
12.044,8.192
12.048,8.204
12.052,8.084
12.056,8.048
12.06,8.108
12.064,8.08
12.068,7.98
12.072,7.956
12.076,8.016
12.08,8.052
12.084,7.98
12.088,7.924
12.092,7.976
12.096,8.072
12.1,8.004
12.104,7.916
12.108,7.996
12.112,8.064
12.116,7.952
12.12,7.768
12.124,7.952
12.128,8.416
12.132,8.92
12.136,9.452
12.14,10.212
12.144,11
12.148,11.396
12.152,10.74
12.156,9.436
12.16,8.456
12.164,7.964
12.168,7.812
12.172,7.852
12.176,7.976
12.18,8.048
12.184,8.052
12.188,8.032
12.192,8.096
12.196,8.136
12.2,8.104
12.204,8.04
12.208,8.088
12.212,8.176
12.216,8.112
12.22,8.048
12.224,8.068
12.228,8.16
12.232,8.14
12.236,8.08
12.24,8.112
12.244,8.212
12.248,8.188
12.252,8.108
12.256,8.14
12.26,8.224
12.264,8.264
12.268,8.156
12.272,8.168
12.276,8.236
12.28,8.296
12.284,8.248
12.288,8.22
12.292,8.288
12.296,8.392
12.3,8.336
12.304,8.292
12.308,8.388
12.312,8.492
12.316,8.472
12.32,8.396
12.324,8.46
12.328,8.612
12.332,8.62
12.336,8.56
12.34,8.62
12.344,8.764
12.348,8.832
12.352,8.78
12.356,8.836
12.36,8.968
12.364,9.056
12.368,9
12.372,9.004
12.376,9.128
12.38,9.2
12.384,9.148
12.388,9.112
12.392,9.176
12.396,9.192
12.4,9.072
12.404,8.884
12.408,8.836
12.412,8.84
12.416,8.656
12.42,8.468
12.424,8.432
12.428,8.444
12.432,8.344
12.436,8.184
12.44,8.172
12.444,8.224
12.448,8.188
12.452,8.08
12.456,8.072
12.46,8.116
12.464,8.152
12.468,8.044
12.472,7.988
12.476,8.06
12.48,8.092
12.484,8.012
12.488,7.984
12.492,8.048
12.496,8.144
12.5,8.048
12.504,7.968
12.508,8.04
12.512,8.116
12.516,8.06
12.52,7.98
12.524,8.016
12.528,8.132
12.532,8.088
12.536,7.972
12.54,8.024
12.544,8.1
12.548,8.124
12.552,7.98
12.556,8.012
12.56,8.1
12.564,8.128
12.568,8.024
12.572,7.996
12.576,8.06
12.58,8.096
12.584,8.056
12.588,7.984
12.592,8.088
12.596,8.144
12.6,8.092
12.604,7.956
12.608,8.068
12.612,8.088
12.616,8.06
12.62,7.94
12.624,8.004
12.628,8.1
12.632,8.048
12.636,7.992
12.64,8.016
12.644,8.108
12.648,8.056
12.652,8.004
12.656,8
12.66,8.084
12.664,8.084
12.668,8.02
12.672,7.96
12.676,8.044
12.68,8.092
12.684,8.02
12.688,7.944
12.692,8.06
12.696,8.088
12.7,8.052
12.704,7.968
12.708,8.024
12.712,8.088
12.716,8.052
12.72,7.96
12.724,7.984
12.728,8.092
12.732,8.072
12.736,7.968
12.74,8.032
12.744,8.164
12.748,8.132
12.752,8.088
12.756,8.092
12.76,8.224
12.764,8.276
12.768,8.216
12.772,8.156
12.776,8.212
12.78,8.28
12.784,8.148
12.788,8.084
12.792,8.128
12.796,8.212
12.8,8.14
12.804,8.02
12.808,8.036
12.812,8.092
12.816,8.016
12.82,7.912
12.824,7.944
12.828,8.06
12.832,8.016
12.836,7.94
12.84,7.912
12.844,8.048
12.848,8.024
12.852,7.948
12.856,7.968
12.86,8.032
12.864,7.964
12.868,7.856
12.872,8.012
12.876,8.512
12.88,9.068
12.884,9.644
12.888,10.332
12.892,11.052
12.896,11.428
12.9,10.652
12.904,9.144
12.908,8.224
12.912,8.004
12.916,7.964
12.92,7.928
12.924,8.004
12.928,8.128
12.932,8.148
12.936,8.072
12.94,8.072
12.944,8.156
12.948,8.148
12.952,8.08
12.956,8.048
12.96,8.156
12.964,8.164
12.968,8.084
12.972,8.048
12.976,8.148
12.98,8.196
12.984,8.168
12.988,8.108
12.992,8.176
12.996,8.236
13,8.192
13.004,8.124
13.008,8.192
13.012,8.308
13.016,8.276
13.02,8.184
13.024,8.212
13.028,8.356
13.032,8.316
13.036,8.24
13.04,8.28
13.044,8.384
13.048,8.412
13.052,8.328
13.056,8.348
13.06,8.476
13.064,8.532
13.068,8.456
13.072,8.46
13.076,8.56
13.08,8.688
13.084,8.632
13.088,8.644
13.092,8.732
13.096,8.86
13.1,8.856
13.104,8.824
13.108,8.92
13.112,9.084
13.116,9.072
13.12,9.04
13.124,9.124
13.128,9.236
13.132,9.268
13.136,9.152
13.14,9.168
13.144,9.224
13.148,9.176
13.152,8.96
13.156,8.864
13.16,8.848
13.164,8.76
13.168,8.552
13.172,8.452
13.176,8.44
13.18,8.408
13.184,8.292
13.188,8.224
13.192,8.236
13.196,8.276
13.2,8.176
13.204,8.092
13.208,8.128
13.212,8.208
13.216,8.144
13.22,8.052
13.224,8.08
13.228,8.192
13.232,8.168
13.236,8.036
13.24,8.052
13.244,8.156
13.248,8.16
13.252,8.064
13.256,8.064
13.26,8.168
13.264,8.156
13.268,8.068
13.272,8.056
13.276,8.132
13.28,8.176
13.284,8.104
13.288,8.056
13.292,8.108
13.296,8.18
13.3,8.112
13.304,8.04
13.308,8.092
13.312,8.184
13.316,8.164
13.32,8.036
13.324,8.08
13.328,8.164
13.332,8.132
13.336,8.04
13.34,8.056
13.344,8.184
13.348,8.176
13.352,8.092
13.356,8.068
13.36,8.172
13.364,8.144
13.368,8.072
13.372,8.064
13.376,8.108
13.38,8.184
13.384,8.116
13.388,8.028
13.392,8.116
13.396,8.152
13.4,8.108
13.404,8.032
13.408,8.068
13.412,8.184
13.416,8.128
13.42,8.028
13.424,8.044
13.428,8.136
13.432,8.128
13.436,8.028
13.44,8.028
13.444,8.172
13.448,8.164
13.452,8.052
13.456,8.032
13.46,8.124
13.464,8.148
13.468,8.048
13.472,8.024
13.476,8.128
13.48,8.148
13.484,8.06
13.488,8.02
13.492,8.092
13.496,8.192
13.5,8.1
13.504,8.024
13.508,8.072
13.512,8.156
13.516,8.124
13.52,8.04
13.524,8.12
13.528,8.244
13.532,8.248
13.536,8.16
13.54,8.192
13.544,8.324
13.548,8.352
13.552,8.236
13.556,8.212
13.56,8.292
13.564,8.292
13.568,8.192
13.572,8.152
13.576,8.224
13.58,8.252
13.584,8.144
13.588,8.056
13.592,8.084
13.596,8.132
13.6,8.056
13.604,7.976
13.608,8.028
13.612,8.128
13.616,8.064
13.62,7.976
13.624,7.996
13.628,8.116
13.632,8.072
13.636,7.992
13.64,7.984
13.644,8.08
13.648,7.98
13.652,7.988
13.656,8.296
13.66,8.832
13.664,9.408
13.668,10.044
13.672,10.756
13.676,11.348
13.68,11.192
13.684,9.788
13.688,8.552
13.692,8.052
13.696,8.032
13.7,8.056
13.704,7.992
13.708,8.108
13.712,8.24
13.716,8.196
13.72,8.104
13.724,8.136
13.728,8.252
13.732,8.216
13.736,8.116
13.74,8.116
13.744,8.228
13.748,8.24
13.752,8.128
13.756,8.128
13.76,8.248
13.764,8.26
13.768,8.216
13.772,8.16
13.776,8.236
13.78,8.288
13.784,8.24
13.788,8.164
13.792,8.252
13.796,8.36
13.8,8.284
13.804,8.232
13.808,8.28
13.812,8.396
13.816,8.356
13.82,8.296
13.824,8.34
13.828,8.476
13.832,8.444
13.836,8.384
13.84,8.42
13.844,8.52
13.848,8.552
13.852,8.516
13.856,8.492
13.86,8.644
13.864,8.688
13.868,8.66
13.872,8.708
13.876,8.82
13.88,8.896
13.884,8.9
13.888,8.88
13.892,9.032
13.896,9.128
13.9,9.136
13.904,9.084
13.908,9.2
13.912,9.312
13.916,9.272
13.92,9.188
13.924,9.192
13.928,9.252
13.932,9.14
13.936,8.94
13.94,8.848
13.944,8.84
13.948,8.708
13.952,8.548
13.956,8.44
13.96,8.452
13.964,8.416
13.968,8.296
13.972,8.204
13.976,8.252
13.98,8.244
13.984,8.168
13.988,8.064
13.992,8.116
13.996,8.192
14,8.144
14.004,8.036
14.008,8.092
14.012,8.18
14.016,8.136
14.02,8.052
14.024,8.064
14.028,8.148
14.032,8.136
14.036,8.052
14.04,8.048
14.044,8.168
14.048,8.148
14.052,8.044
14.056,8.02
14.06,8.132
14.064,8.148
14.068,8.072
14.072,8.064
14.076,8.116
14.08,8.172
14.084,8.068
14.088,8.02
14.092,8.092
14.096,8.18
14.1,8.1
14.104,8.02
14.108,8.072
14.112,8.156
14.116,8.12
14.12,8.008
14.124,8.04
14.128,8.152
14.132,8.132
14.136,8.016
14.14,8.028
14.144,8.148
14.148,8.092
14.152,8.016
14.156,7.98
14.16,8.096
14.164,8.112
14.168,8.028
14.172,7.988
14.176,8.068
14.18,8.1
14.184,8.016
14.188,7.964
14.192,8.04
14.196,8.104
14.2,8.056
14.204,7.96
14.208,8.028
14.212,8.076
14.216,8.064
14.22,7.96
14.224,7.98
14.228,8.092
14.232,8.06
14.236,7.984
14.24,7.964
14.244,8.096
14.248,8.064
14.252,7.996
14.256,7.972
14.26,8.064
14.264,8.092
14.268,8.012
14.272,7.952
14.276,8.028
14.28,8.06
14.284,8.012
14.288,7.944
14.292,8.008
14.296,8.104
14.3,8.012
14.304,7.924
14.308,7.968
14.312,8.088
14.316,8.024
14.32,7.936
14.324,7.972
14.328,8.076
14.332,8.044
14.336,7.964
14.34,7.996
14.344,8.116
14.348,8.108
14.352,8.044
14.356,8.044
14.36,8.188
14.364,8.236
14.368,8.164
14.372,8.116
14.376,8.172
14.38,8.236
14.384,8.132
14.388,8.052
14.392,8.104
14.396,8.184
14.4,8.1
14.404,7.964
14.408,7.98
14.412,8.048
14.416,7.972
14.42,7.888
14.424,7.896
14.428,8.024
14.432,7.988
14.436,7.864
14.44,7.896
14.444,8.008
14.448,7.988
14.452,7.916
14.456,7.908
14.46,8
14.464,7.944
14.468,7.84
14.472,8.04
14.476,8.512
14.48,9.1
14.484,9.696
14.488,10.396
14.492,11.032
14.496,11.236
14.5,10.176
14.504,8.804
14.508,8.064
14.512,7.86
14.516,7.86
14.52,7.812
14.524,7.888
14.528,8.088
14.532,8.088
14.536,7.98
14.54,8
14.544,8.112
14.548,8.08
14.552,7.964
14.556,7.972
14.56,8.072
14.564,8.096
14.568,8.032
14.572,7.976
14.576,8.084
14.58,8.14
14.584,8.064
14.588,8.036
14.592,8.084
14.596,8.184
14.6,8.104
14.604,8.04
14.608,8.096
14.612,8.22
14.616,8.156
14.62,8.1
14.624,8.152
14.628,8.248
14.632,8.248
14.636,8.14
14.64,8.192
14.644,8.308
14.648,8.324
14.652,8.272
14.656,8.28
14.66,8.36
14.664,8.436
14.668,8.388
14.672,8.372
14.676,8.496
14.68,8.576
14.684,8.536
14.688,8.536
14.692,8.64
14.696,8.808
14.7,8.796
14.704,8.752
14.708,8.832
14.712,9.008
14.716,9.004
14.72,8.98
14.724,9.028
14.728,9.18
14.732,9.18
14.736,9.088
14.74,9.08
14.744,9.148
14.748,9.072
14.752,8.892
14.756,8.78
14.76,8.772
14.764,8.672
14.768,8.46
14.772,8.332
14.776,8.336
14.78,8.324
14.784,8.208
14.788,8.088
14.792,8.1
14.796,8.136
14.8,8.052
14.804,7.96
14.808,7.984
14.812,8.084
14.816,8.028
14.82,7.928
14.824,7.952
14.828,8.068
14.832,8.02
14.836,7.932
14.84,7.912
14.844,8.024
14.848,8.044
14.852,7.948
14.856,7.916
14.86,8.02
14.864,8.04
14.868,7.948
14.872,7.904
14.876,8
14.88,8.052
14.884,7.952
14.888,7.9
14.892,7.976
14.896,8.036
14.9,7.996
14.904,7.908
14.908,7.948
14.912,8.064
14.916,8.008
14.92,7.916
14.924,7.96
14.928,8.048
14.932,7.996
14.936,7.9
14.94,7.912
14.944,8.036
14.948,8
14.952,7.92
14.956,7.904
14.96,7.984
14.964,8.004
14.968,7.936
14.972,7.88
14.976,7.956
14.98,7.98
14.984,7.956
14.988,7.88
14.992,7.916
14.996,7.996
15,7.932
15.004,7.852
15.008,7.924
15.012,8.036
15.016,7.96
15.02,7.852
15.024,7.864
15.028,8.004
15.032,7.96
15.036,7.848
15.04,7.86
15.044,7.972
15.048,7.952
15.052,7.872
15.056,7.856
15.06,7.936
15.064,7.968
15.068,7.884
15.072,7.824
15.076,7.904
15.08,7.992
15.084,7.916
15.088,7.924
15.092,7.944
15.096,8.056
15.1,8.004
15.104,7.952
15.108,8.024
15.112,8.192
15.116,8.136
15.12,8.04
15.124,8.016
15.128,8.12
15.132,8.084
15.136,7.964
15.14,7.98
15.144,8.052
15.148,8
15.152,7.92
15.156,7.832
15.16,7.916
15.164,7.936
15.168,7.844
15.172,7.776
15.176,7.876
15.18,7.916
15.184,7.86
15.188,7.796
15.192,7.84
15.196,7.908
15.2,7.86
15.204,7.756
15.208,7.764
15.212,7.792
15.216,7.836
15.22,8.104
15.224,8.644
15.228,9.388
15.232,10.072
15.236,10.712
15.24,11.136
15.244,10.812
15.248,9.552
15.252,8.316
15.256,7.736
15.26,7.692
15.264,7.768
15.268,7.776
15.272,7.784
15.276,7.932
15.28,8.028
15.284,7.952
15.288,7.876
15.292,7.964
15.296,8.016
15.3,7.96
15.304,7.876
15.308,7.924
15.312,8.024
15.316,8.02
15.32,7.92
15.324,7.952
15.328,8.064
15.332,8.056
15.336,7.96
15.34,8.004
15.344,8.108
15.348,8.096
15.352,8.028
15.356,8.032
15.36,8.112
15.364,8.168
15.368,8.112
15.372,8.076
15.376,8.164
15.38,8.232
15.384,8.184
15.388,8.124
15.392,8.212
15.396,8.312
15.4,8.288
15.404,8.212
15.408,8.272
15.412,8.424
15.416,8.404
15.42,8.324
15.424,8.412
15.428,8.56
15.432,8.568
15.436,8.524
15.44,8.6
15.444,8.74
15.448,8.784
15.452,8.752
15.456,8.8
15.46,8.96
15.464,9.016
15.468,8.952
15.472,8.968
15.476,9.096
15.48,9.144
15.484,9.064
15.488,8.964
15.492,8.952
15.496,8.964
15.5,8.792
15.504,8.624
15.508,8.544
15.512,8.556
15.516,8.396
15.52,8.22
15.524,8.172
15.528,8.212
15.532,8.16
15.536,8
15.54,7.984
15.544,8.068
15.548,8.06
15.552,7.952
15.556,7.92
15.56,8.008
15.564,8.024
15.568,7.956
15.572,7.912
15.576,7.996
15.58,8.024
15.584,7.944
15.588,7.872
15.592,7.924
15.596,8.028
15.6,7.956
15.604,7.888
15.608,7.912
15.612,8
15.616,7.984
15.62,7.884
15.624,7.92
15.628,8.048
15.632,8.012
15.636,7.912
15.64,7.916
15.644,8.028
15.648,8.024
15.652,7.916
15.656,7.92
15.66,7.98
15.664,8.032
15.668,7.972
15.672,7.928
15.676,8.004
15.68,8.052
15.684,7.972
15.688,7.9
15.692,7.984
15.696,8.064
15.7,7.964
15.704,7.896
15.708,7.952
15.712,8.032
15.716,7.996
15.72,7.884
15.724,7.896
15.728,8.004
15.732,8
15.736,7.92
15.74,7.928
15.744,8.02
15.748,8.008
15.752,7.9
15.756,7.876
15.76,7.98
15.764,8.008
15.768,7.908
15.772,7.892
15.776,7.96
15.78,8.008
15.784,7.924
15.788,7.88
15.792,7.928
15.796,8.004
15.8,7.968
15.804,7.876
15.808,7.916
15.812,7.992
15.816,7.964
15.82,7.892
15.824,7.908
15.828,7.984
15.832,7.996
15.836,7.896
15.84,7.924
15.844,8.04
15.848,8.088
15.852,8
15.856,7.992
15.86,8.1
15.864,8.156
15.868,8.096
15.872,8.096
15.876,8.164
15.88,8.196
15.884,8.08
15.888,8.016
15.892,8.084
15.896,8.128
15.9,8.092
15.904,7.98
15.908,8.004
15.912,8.068
15.916,7.976
15.92,7.856
15.924,7.872
15.928,7.988
15.932,7.948
15.936,7.84
15.94,7.86
15.944,7.972
15.948,7.972
15.952,7.888
15.956,7.844
15.96,7.968
15.964,7.996
15.968,7.808
15.972,7.772
15.976,8.064
15.98,8.516
15.984,8.992
15.988,9.568
15.992,10.424
15.996,11.116
16,11.328
16.004,10.336
16.008,8.988
16.012,8.164
16.016,7.86
16.02,7.808
16.024,7.888
16.028,8.02
16.032,8.056
16.036,7.98
16.04,7.98
16.044,8.068
16.048,8.072
16.052,7.98
16.056,7.948
16.06,8.052
16.064,8.108
16.068,8.008
16.072,8.008
16.076,8.072
16.08,8.144
16.084,8.056
16.088,8.016
16.092,8.068
16.096,8.16
16.1,8.112
16.104,8.048
16.108,8.112
16.112,8.216
16.116,8.164
16.12,8.088
16.124,8.128
16.128,8.268
16.132,8.236
16.136,8.128
16.14,8.188
16.144,8.296
16.148,8.284
16.152,8.22
16.156,8.212
16.16,8.352
16.164,8.404
16.168,8.332
16.172,8.328
16.176,8.424
16.18,8.52
16.184,8.5
16.188,8.472
16.192,8.596
16.196,8.736
16.2,8.72
16.204,8.696
16.208,8.784
16.212,8.956
16.216,8.952
16.22,8.904
16.224,8.98
16.228,9.132
16.232,9.148
16.236,9.048
16.24,9.056
16.244,9.176
16.248,9.124
16.252,8.988
16.256,8.892
16.26,8.876
16.264,8.804
16.268,8.596
16.272,8.44
16.276,8.432
16.28,8.424
16.284,8.264
16.288,8.168
16.292,8.2
16.296,8.204
16.3,8.112
16.304,8.012
16.308,8.048
16.312,8.116
16.316,8.048
16.32,7.968
16.324,8
16.328,8.056
16.332,8.052
16.336,7.952
16.34,7.952
16.344,8.076
16.348,8.056
16.352,7.952
16.356,7.968
16.36,8.056
16.364,8.08
16.368,7.988
16.372,7.928
16.376,8.024
16.38,8.08
16.384,8.004
16.388,7.952
16.392,8
16.396,8.1
16.4,8.032
16.404,7.932
16.408,7.992
16.412,8.096
16.416,8.06
16.42,7.936
16.424,8
16.428,8.092
16.432,8.088
16.436,7.976
16.44,7.996
16.444,8.072
16.448,8.068
16.452,7.972
16.456,7.972
16.46,8.052
16.464,8.1
16.468,7.988
16.472,7.96
16.476,8.032
16.48,8.064
16.484,8.04
16.488,7.94
16.492,8.008
16.496,8.084
16.5,8.024
16.504,7.912
16.508,7.972
16.512,8.064
16.516,8.028
16.52,7.948
16.524,7.96
16.528,8.08
16.532,8.044
16.536,7.948
16.54,7.952
16.544,8.024
16.548,8.06
16.552,7.976
16.556,7.94
16.56,8.032
16.564,8.068
16.568,7.976
16.572,7.928
16.576,7.988
16.58,8.08
16.584,7.992
16.588,7.94
16.592,7.996
16.596,8.084
16.6,8.02
16.604,7.928
16.608,7.968
16.612,8.084
16.616,8.024
16.62,7.956
16.624,7.964
16.628,8.1
16.632,8.044
16.636,7.964
16.64,7.992
16.644,8.124
16.648,8.164
16.652,8.096
16.656,8.076
16.66,8.204
16.664,8.256
16.668,8.2
16.672,8.172
16.676,8.192
16.68,8.224
16.684,8.16
16.688,8.084
16.692,8.128
16.696,8.208
16.7,8.14
16.704,8.008
16.708,8.028
16.712,8.072
16.716,8.044
16.72,7.912
16.724,7.952
16.728,8.044
16.732,8.016
16.736,7.92
16.74,7.908
16.744,8.008
16.748,8.04
16.752,7.956
16.756,7.964
16.76,8.024
16.764,8.044
16.768,7.876
16.772,7.96
16.776,8.388
16.78,8.952
16.784,9.416
16.788,10.092
16.792,10.892
16.796,11.424
16.8,10.94
16.804,9.468
16.808,8.396
16.812,8.048
16.816,7.992
16.82,7.94
16.824,7.988
16.828,8.152
16.832,8.18
16.836,8.092
16.84,8.072
16.844,8.192
16.848,8.196
16.852,8.088
16.856,8.076
16.86,8.156
16.864,8.192
16.868,8.12
16.872,8.084
16.876,8.144
16.88,8.252
16.884,8.176
16.888,8.128
16.892,8.172
16.896,8.284
16.9,8.224
16.904,8.168
16.908,8.204
16.912,8.32
16.916,8.284
16.92,8.204
16.924,8.248
16.928,8.356
16.932,8.376
16.936,8.256
16.94,8.3
16.944,8.424
16.948,8.452
16.952,8.376
16.956,8.4
16.96,8.48
16.964,8.532
16.968,8.476
16.972,8.472
16.976,8.592
16.98,8.684
16.984,8.664
16.988,8.644
16.992,8.74
16.996,8.872
17,8.876
17.004,8.84
17.008,8.956
17.012,9.12
17.016,9.128
17.02,9.076
17.024,9.136
17.028,9.268
17.032,9.276
17.036,9.232
17.04,9.216
17.044,9.312
17.048,9.252
17.052,9.072
17.056,8.936
17.06,8.936
17.064,8.84
17.068,8.708
17.072,8.54
17.076,8.544
17.08,8.504
17.084,8.404
17.088,8.26
17.092,8.268
17.096,8.332
17.1,8.292
17.104,8.12
17.108,8.16
17.112,8.256
17.116,8.26
17.12,8.072
17.124,8.112
17.128,8.208
17.132,8.204
17.136,8.084
17.14,8.08
17.144,8.2
17.148,8.168
17.152,8.096
17.156,8.032
17.16,8.164
17.164,8.176
17.168,8.128
17.172,8.048
17.176,8.144
17.18,8.2
17.184,8.176
17.188,8.036
17.192,8.12
17.196,8.176
17.2,8.204
17.204,8.036
17.208,8.12
17.212,8.22
17.216,8.216
17.22,8.024
17.224,8.08
17.228,8.196
17.232,8.164
17.236,8.068
17.24,8.084
17.244,8.196
17.248,8.168
17.252,8.096
17.256,8.068
17.26,8.168
17.264,8.164
17.268,8.12
17.272,8.08
17.276,8.136
17.28,8.18
17.284,8.152
17.288,8.028
17.292,8.112
17.296,8.176
17.3,8.156
17.304,8.02
17.308,8.064
17.312,8.192
17.316,8.184
17.32,8.032
17.324,8.032
17.328,8.148
17.332,8.136
17.336,8.032
17.34,8.032
17.344,8.148
17.348,8.132
17.352,8.06
17.356,8.028
17.36,8.104
17.364,8.128
17.368,8.096
17.372,8.024
17.376,8.096
17.38,8.156
17.384,8.128
17.388,7.972
17.392,8.068
17.396,8.176
17.4,8.236
17.404,8.076
17.408,8.144
17.412,8.28
17.416,8.304
17.42,8.192
17.424,8.244
17.428,8.356
17.432,8.32
17.436,8.204
17.44,8.172
17.444,8.264
17.448,8.232
17.452,8.168
17.456,8.124
17.46,8.168
17.464,8.172
17.468,8.108
17.472,7.988
17.476,8.076
17.48,8.076
17.484,8.056
17.488,7.94
17.492,7.996
17.496,8.1
17.5,8.108
17.504,7.928
17.508,8.004
17.512,8.104
17.516,8.076
17.52,7.892
17.524,7.828
17.528,8.096
17.532,8.416
17.536,8.868
17.54,9.472
17.544,10.34
17.548,11.004
17.552,11.336
17.556,10.692
17.56,9.444
17.564,8.42
17.568,7.948
17.572,7.828
17.576,7.956
17.58,8.064
17.584,8.092
17.588,8.032
17.592,8.1
17.596,8.176
17.6,8.184
17.604,8.036
17.608,8.06
17.612,8.192
17.616,8.172
17.62,8.052
17.624,8.072
17.628,8.212
17.632,8.176
17.636,8.116
17.64,8.1
17.644,8.22
17.648,8.22
17.652,8.164
17.656,8.112
17.66,8.228
17.664,8.264
17.668,8.244
17.672,8.18
17.676,8.268
17.68,8.308
17.684,8.296
17.688,8.204
17.692,8.284
17.696,8.396
17.7,8.416
17.704,8.248
17.708,8.316
17.712,8.472
17.716,8.496
17.72,8.372
17.724,8.432
17.728,8.568
17.732,8.616
17.736,8.56
17.74,8.572
17.744,8.728
17.748,8.784
17.752,8.8
17.756,8.76
17.76,8.944
17.764,9.008
17.768,9.056
17.772,8.976
17.776,9.132
17.78,9.2
17.784,9.208
17.788,9.112
17.792,9.212
17.796,9.284
17.8,9.228
17.804,9.048
17.808,8.988
17.812,8.984
17.816,8.844
17.82,8.612
17.824,8.532
17.828,8.544
17.832,8.464
17.836,8.316
17.84,8.22
17.844,8.296
17.848,8.24
17.852,8.164
17.856,8.036
17.86,8.148
17.864,8.14
17.868,8.124
17.872,8
17.876,8.076
17.88,8.116
17.884,8.088
17.888,7.984
17.892,8.044
17.896,8.128
17.9,8.1
17.904,7.94
17.908,8.004
17.912,8.112
17.916,8.108
17.92,7.968
17.924,8.008
17.928,8.108
17.932,8.088
17.936,8.024
17.94,7.98
17.944,8.1
17.948,8.072
17.952,8.04
17.956,7.992
17.96,8.092
17.964,8.096
17.968,8.06
17.972,7.984
17.976,8.052
17.98,8.112
17.984,8.12
17.988,7.964
17.992,8.036
17.996,8.116
18,8.1
18.004,7.956
18.008,8.012
18.012,8.108
18.016,8.072
18.02,7.972
18.024,7.992
18.028,8.112
18.032,8.076
18.036,8.02
18.04,7.992
18.044,8.088
18.048,8.096
18.052,8.028
18.056,7.952
18.06,8.036
18.064,8.084
18.068,8.064
18.072,7.94
18.076,8.024
18.08,8.092
18.084,8.064
18.088,7.92
18.092,8.016
18.096,8.076
18.1,8.06
18.104,7.928
18.108,7.964
18.112,8.076
18.116,8.048
18.12,7.932
18.124,7.94
18.128,8.112
18.132,8.104
18.136,8.056
18.14,8.02
18.144,8.148
18.148,8.176
18.152,8.164
18.156,8.108
18.16,8.26
18.164,8.256
18.168,8.208
18.172,8.06
18.176,8.124
18.18,8.184
18.184,8.152
18.188,8.008
18.192,8.068
18.196,8.096
18.2,8.036
18.204,7.9
18.208,7.932
18.212,8.008
18.216,7.964
18.22,7.88
18.224,7.904
18.228,7.988
18.232,7.96
18.236,7.912
18.24,7.88
18.244,8
18.248,7.968
18.252,7.88
18.256,7.724
18.26,7.984
18.264,8.424
18.268,8.952
18.272,9.488
18.276,10.332
18.28,11.064
18.284,11.412
18.288,10.608
18.292,9.308
18.296,8.348
18.3,7.868
18.304,7.704
18.308,7.844
18.312,8
18.316,8.032
18.32,7.972
18.324,8.004
18.328,8.136
18.332,8.068
18.336,8.016
18.34,7.964
18.344,8.096
18.348,8.084
18.352,8.072
18.356,8.012
18.36,8.092
18.364,8.14
18.368,8.116
18.372,7.992
18.376,8.112
18.38,8.176
18.384,8.164
18.388,8.084
18.392,8.164
18.396,8.252
18.4,8.208
18.404,8.108
18.408,8.144
18.412,8.26
18.416,8.236
18.42,8.172
18.424,8.2
18.428,8.328
18.432,8.284
18.436,8.256
18.44,8.22
18.444,8.368
18.448,8.416
18.452,8.388
18.456,8.344
18.46,8.476
18.464,8.556
18.468,8.564
18.472,8.484
18.476,8.608
18.48,8.744
18.484,8.776
18.488,8.708
18.492,8.84
18.496,8.98
18.5,8.984
18.504,8.94
18.508,9.008
18.512,9.14
18.516,9.152
18.52,9.084
18.524,9.108
18.528,9.208
18.532,9.132
18.536,9.004
18.54,8.9
18.544,8.888
18.548,8.768
18.552,8.628
18.556,8.456
18.56,8.456
18.564,8.392
18.568,8.308
18.572,8.128
18.576,8.18
18.58,8.212
18.584,8.14
18.588,8
18.592,8.044
18.596,8.128
18.6,8.068
18.604,7.98
18.608,7.988
18.612,8.112
18.616,8.044
18.62,7.936
18.624,7.964
18.628,8.084
18.632,8.044
18.636,7.984
18.64,7.94
18.644,8.044
18.648,8.068
18.652,8.004
18.656,7.964
18.66,8.048
18.664,8.06
18.668,8.032
18.672,7.936
18.676,7.996
18.68,8.068
18.684,8.052
18.688,7.952
18.692,8.032
18.696,8.092
18.7,8.032
18.704,7.96
18.708,7.984
18.712,8.12
18.716,8.06
18.72,7.964
18.724,7.976
18.728,8.072
18.732,8.04
18.736,8.016
18.74,7.96
18.744,8.064
18.748,8.06
18.752,8.016
18.756,7.96
18.76,8.012
18.764,8.068
18.768,8.032
18.772,7.928
18.776,8.012
18.78,8.084
18.784,8.04
18.788,7.904
18.792,7.98
18.796,8.076
18.8,8.004
18.804,7.928
18.808,7.968
18.812,8.068
18.816,8.008
18.82,7.936
18.824,7.936
18.828,8.06
18.832,8.028
18.836,7.964
18.84,7.912
18.844,8.024
18.848,8.016
18.852,7.988
18.856,7.908
18.86,8.02
18.864,8.052
18.868,8.012
18.872,7.908
18.876,8.012
18.88,8.1
18.884,8.088
18.888,7.988
18.892,8.064
18.896,8.184
18.9,8.136
18.904,8.076
18.908,8.164
18.912,8.272
18.916,8.188
18.92,8.116
18.924,8.104
18.928,8.18
18.932,8.148
18.936,8.068
18.94,8.044
18.944,8.088
18.948,8.072
18.952,8.012
18.956,7.884
18.96,7.98
18.964,8.004
18.968,7.968
18.972,7.876
18.976,7.972
18.98,8.032
18.984,7.972
18.988,7.864
18.992,7.936
18.996,8.012
19,7.944
19.004,7.804
19.008,7.828
19.012,8.136
19.016,8.5
19.02,8.976
19.024,9.556
19.028,10.472
19.032,11.092
19.036,11.348
19.04,10.46
19.044,9.176
19.048,8.236
19.052,7.868
19.056,7.86
19.06,7.952
19.064,8.064
19.068,8.072
19.072,8.004
19.076,8.08
19.08,8.136
19.084,8.084
19.088,7.968
19.092,8.04
19.096,8.112
19.1,8.056
19.104,8.004
19.108,8.032
19.112,8.152
19.116,8.132
19.12,8.056
19.124,8.036
19.128,8.16
19.132,8.164
19.136,8.144
19.14,8.08
19.144,8.228
19.148,8.24
19.152,8.216
19.156,8.14
19.16,8.228
19.164,8.3
19.168,8.264
19.172,8.172
19.176,8.256
19.18,8.332
19.184,8.324
19.188,8.256
19.192,8.32
19.196,8.436
19.2,8.416
19.204,8.352
19.208,8.424
19.212,8.536
19.216,8.524
19.22,8.492
19.224,8.556
19.228,8.704
19.232,8.704
19.236,8.744
19.24,8.724
19.244,8.924
19.248,8.952
19.252,8.96
19.256,8.924
19.26,9.08
19.264,9.16
19.268,9.164
19.272,9.108
19.276,9.192
19.28,9.24
19.284,9.144
19.288,8.996
19.292,8.956
19.296,8.96
19.3,8.796
19.304,8.592
19.308,8.528
19.312,8.564
19.316,8.408
19.32,8.28
19.324,8.208
19.328,8.292
19.332,8.232
19.336,8.152
19.34,8.072
19.344,8.168
19.348,8.128
19.352,8.084
19.356,8.012
19.36,8.104
19.364,8.16
19.368,8.104
19.372,8.016
19.376,8.076
19.38,8.128
19.384,8.056
19.388,7.972
19.392,8.028
19.396,8.14
19.4,8.08
19.404,8.028
19.408,8.028
19.412,8.14
19.416,8.092
19.42,8.024
19.424,8.008
19.428,8.104
19.432,8.112
19.436,8.06
19.44,7.996
19.444,8.108
19.448,8.116
19.452,8.068
19.456,7.976
19.46,8.076
19.464,8.148
19.468,8.108
19.472,7.992
19.476,8.076
19.48,8.148
19.484,8.064
19.488,7.996
19.492,8.064
19.496,8.136
19.5,8.084
19.504,8.008
19.508,8.02
19.512,8.108
19.516,8.104
19.52,7.992
19.524,8
19.528,8.1
19.532,8.104
19.536,8.036
19.54,7.98
19.544,8.092
19.548,8.092
19.552,8.08
19.556,7.964
19.56,8.04
19.564,8.092
19.568,8.084
19.572,7.96
19.576,8.02
19.58,8.1
19.584,8.028
19.588,7.968
19.592,8.028
19.596,8.12
19.6,8.04
19.604,7.992
19.608,7.988
19.612,8.108
19.616,8.032
19.62,7.988
19.624,7.94
19.628,8.1
19.632,8.064
19.636,8.048
19.64,7.968
19.644,8.068
19.648,8.088
19.652,8.044
19.656,7.956
19.66,8.036
19.664,8.104
19.668,8.04
19.672,7.964
19.676,8.044
19.68,8.088
19.684,8.032
19.688,7.956
19.692,8.016
19.696,8.116
19.7,8.016
19.704,7.984
19.708,7.956
19.712,8.092
19.716,8.04
19.72,7.956
19.724,7.936
19.728,8.08
19.732,8.092
19.736,8.06
19.74,8.02
19.744,8.12
19.748,8.16
19.752,8.144
19.756,8.112
19.76,8.236
19.764,8.272
19.768,8.188
19.772,8.096
19.776,8.152
19.78,8.188
19.784,8.124
19.788,8.048
19.792,8.08
19.796,8.144
19.8,8.02
19.804,7.96
19.808,7.928
19.812,8.032
19.816,7.956
19.82,7.924
19.824,7.876
19.828,7.996
19.832,8.028
19.836,7.932
19.84,7.88
19.844,8.02
19.848,8.036
19.852,7.964
19.856,7.832
19.86,7.928
19.864,8.152
19.868,8.436
19.872,8.88
19.876,9.544
19.88,10.38
19.884,10.972
19.888,11.256
19.892,10.588
19.896,9.26
19.9,8.256
19.904,7.84
19.908,7.892
19.912,8.04
19.916,8.036
19.92,8.032
19.924,8.052
19.928,8.16
19.932,8.144
19.936,8.052
19.94,7.988
19.944,8.092
19.948,8.14
19.952,8.088
19.956,7.996
19.96,8.112
19.964,8.168
19.968,8.092
19.972,8.032
19.976,8.116
19.98,8.164
19.984,8.132
19.988,8.084
19.992,8.1
19.996,8.228
20,8.168
20.004,8.128
20.008,8.144
20.012,8.272
20.016,8.208
20.02,8.188
20.024,8.184
20.028,8.312
20.032,8.32
20.036,8.296
20.04,8.248
20.044,8.376
20.048,8.404
20.052,8.376
20.056,8.328
20.06,8.436
20.064,8.5
20.068,8.468
20.072,8.456
20.076,8.548
20.08,8.664
20.084,8.644
20.088,8.672
20.092,8.74
20.096,8.888
20.1,8.864
20.104,8.884
20.108,8.936
20.112,9.1
20.116,9.092
20.12,9.092
20.124,9.092
20.128,9.232
20.132,9.204
20.136,9.148
20.14,9.012
20.144,9.06
20.148,8.972
20.152,8.812
20.156,8.64
20.16,8.616
20.164,8.56
20.168,8.388
20.172,8.24
20.176,8.276
20.18,8.296
20.184,8.164
20.188,8.064
20.192,8.088
20.196,8.124
20.2,8.072
20.204,7.992
20.208,7.984
20.212,8.092
20.216,8.044
20.22,8.02
20.224,7.944
20.228,8.104
20.232,8.04
20.236,8
20.24,7.936
20.244,8.032
20.248,8.028
20.252,8.02
20.256,7.928
20.26,8.044
20.264,8.06
20.268,7.992
20.272,7.928
20.276,8.016
20.28,8.068
20.284,8.008
20.288,7.96
20.292,7.98
20.296,8.068
20.3,8.008
20.304,7.932
20.308,7.96
20.312,8.06
20.316,8.02
20.32,7.96
20.324,7.96
20.328,8.08
20.332,8.032
20.336,7.996
20.34,7.936
20.344,8.028
20.348,8.064
20.352,7.976
20.356,7.916
20.36,7.996
20.364,8.056
20.368,7.944
20.372,7.924
20.376,7.972
20.38,8.04
20.384,7.96
20.388,7.92
20.392,7.924
20.396,8.016
20.4,7.964
20.404,7.92
20.408,7.9
20.412,8.036
20.416,7.996
20.42,7.936
20.424,7.888
20.428,8.012
20.432,7.98
20.436,7.932
20.44,7.876
20.444,7.984
20.448,8.004
20.452,7.948
20.456,7.88
20.46,7.96
20.464,7.988
20.468,7.916
20.472,7.884
20.476,7.94
20.48,7.992
20.484,7.948
20.488,7.916
20.492,7.9
20.496,8.024
20.5,7.94
20.504,7.88
20.508,7.852
20.512,7.98
20.516,7.948
20.52,7.904
20.524,7.88
20.528,7.984
20.532,7.972
20.536,7.9
20.54,7.844
20.544,7.988
20.548,7.98
20.552,7.92
20.556,7.86
20.56,7.968
20.564,7.98
20.568,7.912
20.572,7.86
20.576,7.956
20.58,8.048
20.584,7.984
20.588,7.96
20.592,7.992
20.596,8.116
20.6,8.104
20.604,8.096
20.608,8.092
20.612,8.18
20.616,8.108
20.62,8.048
20.624,7.988
20.628,8.088
20.632,8.06
20.636,7.996
20.64,7.936
20.644,8.004
20.648,7.976
20.652,7.868
20.656,7.832
20.66,7.896
20.664,7.924
20.668,7.872
20.672,7.8
20.676,7.864
20.68,7.944
20.684,7.852
20.688,7.856
20.692,7.844
20.696,7.952
20.7,7.836
20.704,7.744
20.708,7.9
20.712,8.388
20.716,8.852
20.72,9.388
20.724,10.104
20.728,10.876
20.732,11.204
20.736,10.496
20.74,9.18
20.744,8.264
20.748,7.844
20.752,7.692
20.756,7.752
20.76,7.84
20.764,7.972
20.768,7.944
20.772,7.924
20.776,7.98
20.78,8.092
20.784,8
20.788,7.944
20.792,7.964
20.796,8.056
20.8,8.008
20.804,7.956
20.808,7.972
20.812,8.092
20.816,8.08
20.82,7.98
20.824,7.992
20.828,8.096
20.832,8.092
20.836,8
20.84,8.04
20.844,8.144
20.848,8.18
20.852,8.092
20.856,8.068
20.86,8.164
20.864,8.216
20.868,8.156
20.872,8.124
20.876,8.212
20.88,8.304
20.884,8.26
20.888,8.18
20.892,8.248
20.896,8.372
20.9,8.34
20.904,8.3
20.908,8.344
20.912,8.524
20.916,8.52
20.92,8.456
20.924,8.524
20.928,8.684
20.932,8.724
20.936,8.676
20.94,8.724
20.944,8.872
20.948,8.944
20.952,8.92
20.956,8.928
20.96,9.064
20.964,9.14
20.968,9.088
20.972,9.056
20.976,9.16
20.98,9.176
20.984,9.036
20.988,8.916
20.992,8.88
20.996,8.844
21,8.68
21.004,8.488
21.008,8.416
21.012,8.42
21.016,8.324
21.02,8.156
21.024,8.132
21.028,8.16
21.032,8.132
21.036,8.012
21.04,7.984
21.044,8.052
21.048,8.06
21.052,7.948
21.056,7.928
21.06,7.984
21.064,8.056
21.068,7.964
21.072,7.892
21.076,7.972
21.08,8.044
21.084,7.988
21.088,7.908
21.092,7.952
21.096,8.024
21.1,7.984
21.104,7.9
21.108,7.936
21.112,8.04
21.116,8
21.12,7.904
21.124,7.912
21.128,8.032
21.132,8.012
21.136,7.948
21.14,7.928
21.144,8.012
21.148,8.024
21.152,7.952
21.156,7.948
21.16,7.976
21.164,8.04
21.168,7.976
21.172,7.928
21.176,7.96
21.18,8.028
21.184,7.984
21.188,7.892
21.192,7.944
21.196,8.068
21.2,8.004
21.204,7.892
21.208,7.924
21.212,8.032
21.216,7.98
21.22,7.892
21.224,7.912
21.228,8.004
21.232,8
21.236,7.9
21.24,7.9
21.244,7.98
21.248,8.004
21.252,7.9
21.256,7.9
21.26,7.98
21.264,8.012
21.268,7.924
21.272,7.896
21.276,7.94
21.28,8
21.284,7.932
21.288,7.864
21.292,7.888
21.296,7.992
21.3,7.976
21.304,7.884
21.308,7.916
21.312,8.004
21.316,7.976
21.32,7.872
21.324,7.912
21.328,8.06
21.332,8.048
21.336,7.968
21.34,7.96
21.344,8.076
21.348,8.136
21.352,8.088
21.356,8.052
21.36,8.124
21.364,8.168
21.368,8.112
21.372,8.012
21.376,8.032
21.38,8.124
21.384,8.06
21.388,7.932
21.392,7.948
21.396,8.04
21.4,7.968
21.404,7.84
21.408,7.864
21.412,7.968
21.416,7.944
21.42,7.828
21.424,7.844
21.428,7.964
21.432,7.936
21.436,7.852
21.44,7.872
21.444,7.964
21.448,7.94
21.452,7.748
21.456,7.776
21.46,8.14
21.464,8.648
21.468,9.192
21.472,9.852
21.476,10.652
21.48,11.24
21.484,11.088
21.488,9.812
21.492,8.624
21.496,8.016
21.5,7.784
21.504,7.752
21.508,7.816
21.512,7.976
21.516,8.008
21.52,7.936
21.524,7.992
21.528,8.104
21.532,8.08
21.536,7.98
21.54,7.948
21.544,8.052
21.548,8.08
21.552,8.028
21.556,7.992
21.56,8.084
21.564,8.144
21.568,8.06
21.572,8.02
21.576,8.08
21.58,8.168
21.584,8.096
21.588,8.056
21.592,8.108
21.596,8.224
21.6,8.192
21.604,8.104
21.608,8.152
21.612,8.26
21.616,8.244
21.62,8.156
21.624,8.196
21.628,8.332
21.632,8.328
21.636,8.232
21.64,8.264
21.644,8.368
21.648,8.4
21.652,8.368
21.656,8.372
21.66,8.46
21.664,8.596
21.668,8.556
21.672,8.516
21.676,8.648
21.68,8.776
21.684,8.736
21.688,8.736
21.692,8.832
21.696,8.992
21.7,8.996
21.704,8.948
21.708,9.032
21.712,9.148
21.716,9.184
21.72,9.088
21.724,9.112
21.728,9.204
21.732,9.112
21.736,8.98
21.74,8.88
21.744,8.86
21.748,8.764
21.752,8.568
21.756,8.432
21.76,8.424
21.764,8.396
21.768,8.26
21.772,8.136
21.776,8.156
21.78,8.188
21.784,8.132
21.788,8.028
21.792,8.044
21.796,8.132
21.8,8.064
21.804,7.972
21.808,7.98
21.812,8.06
21.816,8.068
21.82,7.976
21.824,7.96
21.828,8.048
21.832,8.064
21.836,7.964
21.84,7.956
21.844,8.04
21.848,8.048
21.852,7.984
21.856,7.956
21.86,8.032
21.864,8.08
21.868,8.024
21.872,7.956
21.876,8
21.88,8.096
21.884,8.028
21.888,7.996
21.892,7.996
21.896,8.1
21.9,8.056
21.904,7.972
21.908,7.968
21.912,8.072
21.916,8.064
21.92,7.976
21.924,7.976
21.928,8.084
21.932,8.104
21.936,7.984
21.94,7.976
21.944,8.064
21.948,8.092
21.952,8
21.956,7.976
21.96,8.036
21.964,8.072
21.968,8.032
21.972,7.956
21.976,8
21.98,8.068
21.984,8.032
21.988,7.952
21.992,7.968
21.996,8.044
22,8.036
22.004,7.94
22.008,7.956
22.012,8.044
22.016,8.044
22.02,7.952
22.024,7.916
22.028,8.044
22.032,8.044
22.036,7.956
22.04,7.94
22.044,8.02
22.048,8.08
22.052,7.976
22.056,7.952
22.06,8.008
22.064,8.072
22.068,8.008
22.072,7.964
22.076,8.012
22.08,8.132
22.084,8.092
22.088,8.056
22.092,8.088
22.096,8.204
22.1,8.188
22.104,8.156
22.108,8.152
22.112,8.244
22.116,8.192
22.12,8.108
22.124,8.08
22.128,8.136
22.132,8.152
22.136,8.056
22.14,8.004
22.144,8.044
22.148,8.056
22.152,7.964
22.156,7.916
22.16,7.96
22.164,8.036
22.168,7.948
22.172,7.892
22.176,7.952
22.18,8.016
22.184,7.984
22.188,7.912
22.192,7.932
22.196,8.048
22.2,7.972
22.204,7.82
22.208,7.856
22.212,8.276
22.216,8.736
22.22,9.188
22.224,9.824
22.228,10.712
22.232,11.276
22.236,11.144
22.24,9.92
22.244,8.72
22.248,8.076
22.252,7.884
22.256,7.9
22.26,7.976
22.264,8.088
22.268,8.092
22.272,8.064
22.276,8.104
22.28,8.184
22.284,8.108
22.288,8.068
22.292,8.056
22.296,8.168
22.3,8.128
22.304,8.08
22.308,8.056
22.312,8.204
22.316,8.2
22.32,8.088
22.324,8.076
22.328,8.176
22.332,8.212
22.336,8.132
22.34,8.096
22.344,8.2
22.348,8.264
22.352,8.2
22.356,8.156
22.36,8.212
22.364,8.328
22.368,8.26
22.372,8.232
22.376,8.292
22.38,8.408
22.384,8.38
22.388,8.336
22.392,8.344
22.396,8.464
22.4,8.468
22.404,8.404
22.408,8.432
22.412,8.588
22.416,8.592
22.42,8.56
22.424,8.588
22.428,8.74
22.432,8.804
22.436,8.768
22.44,8.796
22.444,8.944
22.448,9.044
22.452,9.008
22.456,9.032
22.46,9.104
22.464,9.212
22.468,9.2
22.472,9.164
22.476,9.184
22.48,9.264
22.484,9.176
22.488,9.072
22.492,8.956
22.496,8.956
22.5,8.824
22.504,8.632
22.508,8.512
22.512,8.56
22.516,8.456
22.52,8.276
22.524,8.204
22.528,8.272
22.532,8.252
22.536,8.124
22.54,8.092
22.544,8.16
22.548,8.168
22.552,8.088
22.556,8.02
22.56,8.08
22.564,8.148
22.568,8.068
22.572,8.02
22.576,8.06
22.58,8.124
22.584,8.08
22.588,8.004
22.592,8.016
22.596,8.14
22.6,8.116
22.604,8.028
22.608,8.016
22.612,8.144
22.616,8.108
22.62,8.004
22.624,8
22.628,8.112
22.632,8.124
22.636,8.052
22.64,8.012
22.644,8.104
22.648,8.144
22.652,8.072
22.656,8.032
22.66,8.064
22.664,8.152
22.668,8.072
22.672,8.052
22.676,8.072
22.68,8.172
22.684,8.112
22.688,8.072
22.692,8.056
22.696,8.156
22.7,8.112
22.704,8.032
22.708,8.04
22.712,8.168
22.716,8.132
22.72,8.032
22.724,8.02
22.728,8.128
22.732,8.128
22.736,8.036
22.74,8.012
22.744,8.096
22.748,8.14
22.752,8.036
22.756,8.02
22.76,8.072
22.764,8.132
22.768,8.056
22.772,8.028
22.776,8.08
22.78,8.148
22.784,8.076
22.788,8.02
22.792,8.02
22.796,8.12
22.8,8.088
22.804,7.992
22.808,8.024
22.812,8.132
22.816,8.12
22.82,8.036
22.824,8.012
22.828,8.108
22.832,8.108
22.836,8.056
22.84,8.012
22.844,8.1
22.848,8.14
22.852,8.06
22.856,8.016
22.86,8.088
22.864,8.168
22.868,8.156
22.872,8.104
22.876,8.176
22.88,8.264
22.884,8.228
22.888,8.208
22.892,8.224
22.896,8.364
22.9,8.304
22.904,8.18
22.908,8.176
22.912,8.26
22.916,8.224
22.92,8.108
22.924,8.116
22.928,8.172
22.932,8.172
22.936,8.044
22.94,8.036
22.944,8.06
22.948,8.08
22.952,7.996
22.956,8.012
22.96,8.048
22.964,8.112
22.968,8.044
22.972,8.016
22.976,8.04
22.98,8.096
22.984,8.072
22.988,7.996
22.992,7.928
22.996,8.072
23,8.336
23.004,8.664
23.008,9.252
23.012,10.04
23.016,10.784
23.02,11.196
23.024,11.116
23.028,9.968
23.032,8.74
23.036,8.04
23.04,7.892
23.044,8.024
23.048,8.116
23.052,8.08
23.056,8.096
23.06,8.156
23.064,8.248
23.068,8.164
23.072,8.12
23.076,8.116
23.08,8.22
23.084,8.168
23.088,8.108
23.092,8.112
23.096,8.204
23.1,8.2
23.104,8.132
23.108,8.132
23.112,8.24
23.116,8.256
23.12,8.144
23.124,8.192
23.128,8.268
23.132,8.32
23.136,8.244
23.14,8.232
23.144,8.272
23.148,8.332
23.152,8.3
23.156,8.296
23.16,8.352
23.164,8.432
23.168,8.392
23.172,8.348
23.176,8.36
23.18,8.484
23.184,8.464
23.188,8.432
23.192,8.456
23.196,8.608
23.2,8.616
23.204,8.552
23.208,8.572
23.212,8.748
23.216,8.784
23.22,8.74
23.224,8.792
23.228,8.964
23.232,9.04
23.236,8.992
23.24,9.04
23.244,9.136
23.248,9.22
23.252,9.172
23.256,9.2
23.26,9.256
23.264,9.348
23.268,9.264
23.272,9.188
23.276,9.144
23.28,9.132
23.284,8.976
23.288,8.768
23.292,8.688
23.296,8.7
23.3,8.572
23.304,8.4
23.308,8.344
23.312,8.356
23.316,8.336
23.32,8.192
23.324,8.156
23.328,8.224
23.332,8.248
23.336,8.132
23.34,8.092
23.344,8.164
23.348,8.176
23.352,8.104
23.356,8.1
23.36,8.116
23.364,8.176
23.368,8.132
23.372,8.056
23.376,8.064
23.38,8.172
23.384,8.1
23.388,8.06
23.392,8.08
23.396,8.168
23.4,8.16
23.404,8.044
23.408,8.052
23.412,8.176
23.416,8.164
23.42,8.028
23.424,8.068
23.428,8.132
23.432,8.156
23.436,8.064
23.44,8.072
23.444,8.124
23.448,8.16
23.452,8.108
23.456,8.076
23.46,8.108
23.464,8.176
23.468,8.1
23.472,8.056
23.476,8.092
23.48,8.16
23.484,8.1
23.488,8.048
23.492,8.04
23.496,8.16
23.5,8.132
23.504,8.02
23.508,7.996
23.512,8.132
23.516,8.136
23.52,8.028
23.524,8.032
23.528,8.1
23.532,8.112
23.536,8.016
23.54,8.016
23.544,8.064
23.548,8.124
23.552,8.06
23.556,8.012
23.56,8.056
23.564,8.12
23.568,8.08
23.572,8.008
23.576,8.008
23.58,8.08
23.584,8.044
23.588,7.992
23.592,7.984
23.596,8.132
23.6,8.076
23.604,7.988
23.608,8
23.612,8.092
23.616,8.068
23.62,8.016
23.624,7.992
23.628,8.06
23.632,8.108
23.636,8.004
23.64,8.02
23.644,8.096
23.648,8.14
23.652,8.112
23.656,8.104
23.66,8.124
23.664,8.264
23.668,8.24
23.672,8.184
23.676,8.176
23.68,8.24
23.684,8.192
23.688,8.112
23.692,8.104
23.696,8.2
23.7,8.168
23.704,8.028
23.708,8.012
23.712,8.072
23.716,8.052
23.72,7.952
23.724,7.924
23.728,7.968
23.732,8.016
23.736,7.904
23.74,7.94
23.744,7.968
23.748,8.032
23.752,7.972
23.756,7.94
23.76,7.976
23.764,8
23.768,7.856
23.772,7.84
23.776,8.148
23.78,8.7
23.784,9.256
23.788,9.876
23.792,10.616
23.796,11.22
23.8,11.136
23.804,9.896
23.808,8.696
23.812,8.056
23.816,7.812
23.82,7.812
23.824,7.876
23.828,7.996
23.832,8.072
23.836,8.032
23.84,8.056
23.844,8.1
23.848,8.16
23.852,8.068
23.856,8.06
23.86,8.084
23.864,8.148
23.868,8.088
23.872,8.048
23.876,8.068
23.88,8.184
23.884,8.132
23.888,8.092
23.892,8.128
23.896,8.208
23.9,8.196
23.904,8.1
23.908,8.12
23.912,8.216
23.916,8.228
23.92,8.172
23.924,8.204
23.928,8.28
23.932,8.308
23.936,8.236
23.94,8.24
23.944,8.304
23.948,8.408
23.952,8.316
23.956,8.356
23.96,8.372
23.964,8.496
23.968,8.456
23.972,8.452
23.976,8.512
23.98,8.632
23.984,8.616
23.988,8.568
23.992,8.664
23.996,8.808
24,8.828
24.004,8.776
24.008,8.868
24.012,8.992
24.016,9.076
24.02,9
24.024,9.06
24.028,9.156
24.032,9.208
24.036,9.16
24.04,9.184
24.044,9.2
24.048,9.216
24.052,9.056
24.056,8.932
24.06,8.872
24.064,8.828
24.068,8.664
24.072,8.504
24.076,8.444
24.08,8.444
24.084,8.344
24.088,8.208
24.092,8.188
24.096,8.22
24.1,8.172
24.104,8.056
24.108,8.052
24.112,8.148
24.116,8.128
24.12,7.996
24.124,8.012
24.128,8.084
24.132,8.088
24.136,7.996
24.14,8.032
24.144,8.064
24.148,8.084
24.152,8.044
24.156,8
24.16,8.044
24.164,8.112
24.168,8.036
24.172,7.992
24.176,8.008
24.18,8.1
24.184,8.064
24.188,7.956
24.192,8.02
24.196,8.108
24.2,8.072
24.204,7.996
24.208,8.012
24.212,8.1
24.216,8.104
24.22,8.008
24.224,7.992
24.228,8.076
24.232,8.088
24.236,8.012
24.24,8.004
24.244,8.068
24.248,8.088
24.252,8.04
24.256,8.004
24.26,8.016
24.264,8.088
24.268,8.032
24.272,7.944
24.276,7.996
24.28,8.092
24.284,8.02
24.288,7.96
24.292,7.976
24.296,8.048
24.3,8.036
24.304,7.92
24.308,7.96
24.312,8.056
24.316,8.016
24.32,7.948
24.324,7.968
24.328,8.032
24.332,8.044
24.336,7.952
24.34,7.948
24.344,7.988
24.348,8.052
24.352,7.976
24.356,7.928
24.36,7.968
24.364,8.052
24.368,7.964
24.372,7.94
24.376,7.948
24.38,8.06
24.384,8.024
24.388,7.948
24.392,7.976
24.396,8.132
24.4,8.096
24.404,8.028
24.408,8.104
24.412,8.208
24.416,8.224
24.42,8.136
24.424,8.132
24.428,8.14
24.432,8.188
24.436,8.064
24.44,8.068
24.444,8.124
24.448,8.12
24.452,8.02
24.456,7.944
24.46,7.956
24.464,8.012
24.468,7.96
24.472,7.896
24.476,7.908
24.48,8.02
24.484,7.944
24.488,7.84
24.492,7.888
24.496,7.996
24.5,7.992
24.504,7.904
24.508,7.924
24.512,7.92
24.516,7.864
24.52,7.932
24.524,8.368
24.528,8.992
24.532,9.604
24.536,10.276
24.54,10.928
24.544,11.356
24.548,10.684
24.552,9.244
24.556,8.208
24.56,7.808
24.564,7.864
24.568,7.88
24.572,7.868
24.576,7.988
24.58,8.092
24.584,8.076
24.588,8.004
24.592,8.032
24.596,8.124
24.6,8.072
24.604,7.968
24.608,8.036
24.612,8.116
24.616,8.112
24.62,8.024
24.624,8.044
24.628,8.112
24.632,8.116
24.636,8.076
24.64,8.072
24.644,8.128
24.648,8.196
24.652,8.12
24.656,8.08
24.66,8.156
24.664,8.248
24.668,8.196
24.672,8.136
24.676,8.172
24.68,8.3
24.684,8.24
24.688,8.18
24.692,8.252
24.696,8.348
24.7,8.34
24.704,8.3
24.708,8.344
24.712,8.44
24.716,8.448
24.72,8.396
24.724,8.436
24.728,8.552
24.732,8.616
24.736,8.592
24.74,8.624
24.744,8.732
24.748,8.844
24.752,8.816
24.756,8.82
24.76,8.96
24.764,9.06
24.768,9.036
24.772,9.012
24.776,9.1
24.78,9.208
24.784,9.152
24.788,9.08
24.792,9.104
24.796,9.136
24.8,9.044
24.804,8.812
24.808,8.736
24.812,8.724
24.816,8.604
24.82,8.4
24.824,8.316
24.828,8.332
24.832,8.296
24.836,8.16
24.84,8.092
24.844,8.136
24.848,8.168
24.852,8.052
24.856,8.012
24.86,8.064
24.864,8.12
24.868,8.048
24.872,7.952
24.876,8.036
24.88,8.088
24.884,8.048
24.888,7.96
24.892,8
24.896,8.084
24.9,8.04
24.904,7.952
24.908,7.948
24.912,8.072
24.916,8.08
24.92,7.972
24.924,7.988
24.928,8.08
24.932,8.064
24.936,8.008
24.94,7.96
24.944,8.056
24.948,8.088
24.952,8.016
24.956,7.976
24.96,8.048
24.964,8.084
24.968,8.044
24.972,7.964
24.976,8.036
24.98,8.1
24.984,8.044
24.988,7.964
24.992,8.016
24.996,8.108
25,8.072
25.004,7.968
25.008,7.988
25.012,8.092
25.016,8.076
25.02,7.964
25.024,7.952
25.028,8.076
25.032,8.068
25.036,7.992
25.04,7.964
25.044,8.056
25.048,8.084
25.052,7.996
25.056,7.936
25.06,8.016
25.064,8.1
25.068,8.036
25.072,7.964
25.076,8.012
25.08,8.064
25.084,8.02
25.088,7.964
25.092,7.996
25.096,8.064
25.1,8.024
25.104,7.936
25.108,7.956
25.112,8.08
25.116,8.072
25.12,7.96
25.124,7.976
25.128,8.08
25.132,8.08
25.136,7.992
25.14,7.936
25.144,8.044
25.148,8.056
25.152,7.992
25.156,7.944
25.16,8.04
25.164,8.088
25.168,8.068
25.172,8.024
25.176,8.088
25.18,8.184
25.184,8.124
25.188,8.068
25.192,8.156
25.196,8.296
25.2,8.264
25.204,8.096
25.208,8.124
25.212,8.196
25.216,8.18
25.22,8.06
25.224,8.088
25.228,8.172
25.232,8.144
25.236,8.008
25.24,7.944
25.244,8.016
25.248,8.032
25.252,7.98
25.256,7.908
25.26,7.976
25.264,8.04
25.268,7.96
25.272,7.888
25.276,7.956
25.28,8.04
25.284,8.02
25.288,7.892
25.292,7.908
25.296,7.928
25.3,8.044
25.304,8.312
25.308,8.82
25.312,9.508
25.316,10.224
25.32,10.852
25.324,11.288
25.328,10.912
25.332,9.52
25.336,8.308
25.34,7.856
25.344,7.968
25.348,8.016
25.352,7.984
25.356,8.008
25.36,8.124
25.364,8.188
25.368,8.084
25.372,8.016
25.376,8.072
25.38,8.14
25.384,8.116
25.388,8.02
25.392,8.076
25.396,8.184
25.4,8.16
25.404,8.048
25.408,8.096
25.412,8.192
25.416,8.168
25.42,8.092
25.424,8.104
25.428,8.228
25.432,8.208
25.436,8.176
25.44,8.148
25.444,8.24
25.448,8.272
25.452,8.24
25.456,8.192
25.46,8.272
25.464,8.336
25.468,8.304
25.472,8.228
25.476,8.32
25.48,8.424
25.484,8.396
25.488,8.3
25.492,8.384
25.496,8.528
25.5,8.508
25.504,8.436
25.508,8.512
25.512,8.66
25.516,8.696
25.52,8.644
25.524,8.692
25.528,8.856
25.532,8.896
25.536,8.86
25.54,8.892
25.544,9.056
25.548,9.132
25.552,9.08
25.556,9.08
25.56,9.188
25.564,9.268
25.568,9.216
25.572,9.092
25.576,9.136
25.58,9.156
25.584,9.004
25.588,8.796
25.592,8.712
25.596,8.72
25.6,8.576
25.604,8.368
25.608,8.344
25.612,8.376
25.616,8.308
25.62,8.124
25.624,8.148
25.628,8.196
25.632,8.176
25.636,8.084
25.64,8.012
25.644,8.124
25.648,8.16
25.652,8.052
25.656,8.008
25.66,8.084
25.664,8.12
25.668,8.028
25.672,7.952
25.676,8.056
25.68,8.132
25.684,8.052
25.688,7.94
25.692,8.032
25.696,8.136
25.7,8.072
25.704,7.972
25.708,8.024
25.712,8.124
25.716,8.096
25.72,7.992
25.724,8.016
25.728,8.132
25.732,8.1
25.736,8
25.74,8.004
25.744,8.108
25.748,8.116
25.752,8.044
25.756,7.996
25.76,8.076
25.764,8.108
25.768,8.06
25.772,7.976
25.776,8.048
25.78,8.124
25.784,8.072
25.788,7.96
25.792,8.064
25.796,8.12
25.8,8.08
25.804,7.968
25.808,8.016
25.812,8.092
25.816,8.088
25.82,7.976
25.824,7.996
25.828,8.088
25.832,8.08
25.836,7.992
25.84,7.956
25.844,8.076
25.848,8.076
25.852,8.012
25.856,7.948
25.86,8.048
25.864,8.092
25.868,8.028
25.872,7.944
25.876,8.032
25.88,8.092
25.884,8.024
25.888,7.936
25.892,8.008
25.896,8.1
25.9,8.064
25.904,7.924
25.908,7.984
25.912,8.108
25.916,8.048
25.92,7.94
25.924,7.952
25.928,8.072
25.932,8.056
25.936,7.972
25.94,7.948
25.944,8.076
25.948,8.076
25.952,8
25.956,7.94
25.96,8.06
25.964,8.088
25.968,8.016
25.972,7.928
25.976,8.016
25.98,8.076
25.984,8.028
25.988,7.952
25.992,8.048
25.996,8.14
26,8.116
26.004,8.008
26.008,8.08
26.012,8.224
26.016,8.26
26.02,8.176
26.024,8.18
26.028,8.224
26.032,8.192
26.036,8.108
26.04,8.092
26.044,8.192
26.048,8.168
26.052,8.1
26.056,7.992
26.06,8.068
26.064,8.088
26.068,7.988
26.072,7.888
26.076,7.984
26.08,8.036
26.084,7.956
26.088,7.892
26.092,7.932
26.096,8.036
26.1,7.988
26.104,7.892
26.108,7.968
26.112,8.044
26.116,7.992
26.12,7.804
26.124,7.928
26.128,8.336
26.132,8.792
26.136,9.288
26.14,9.956
26.144,10.792
26.148,11.264
26.152,10.94
26.156,9.592
26.16,8.54
26.164,8.012
26.168,7.852
26.172,7.836
26.176,7.972
26.18,8.096
26.184,8.092
26.188,7.976
26.192,8.1
26.196,8.188
26.2,8.112
26.204,8.016
26.208,8.06
26.212,8.176
26.216,8.148
26.22,8.008
26.224,8.044
26.228,8.16
26.232,8.164
26.236,8.108
26.24,8.092
26.244,8.192
26.248,8.232
26.252,8.144
26.256,8.096
26.26,8.224
26.264,8.24
26.268,8.192
26.272,8.128
26.276,8.252
26.28,8.34
26.284,8.3
26.288,8.2
26.292,8.276
26.296,8.368
26.3,8.336
26.304,8.252
26.308,8.38
26.312,8.452
26.316,8.452
26.32,8.388
26.324,8.448
26.328,8.576
26.332,8.568
26.336,8.528
26.34,8.56
26.344,8.756
26.348,8.756
26.352,8.776
26.356,8.784
26.36,8.928
26.364,9.004
26.368,9
26.372,8.96
26.376,9.136
26.38,9.22
26.384,9.204
26.388,9.12
26.392,9.212
26.396,9.268
26.4,9.2
26.404,9.012
26.408,8.96
26.412,8.98
26.416,8.816
26.42,8.652
26.424,8.556
26.428,8.556
26.432,8.456
26.436,8.32
26.44,8.224
26.444,8.292
26.448,8.224
26.452,8.144
26.456,8.076
26.46,8.132
26.464,8.168
26.468,8.076
26.472,8.012
26.476,8.084
26.48,8.144
26.484,8.048
26.488,7.976
26.492,8.048
26.496,8.124
26.5,8.084
26.504,7.996
26.508,8.048
26.512,8.14
26.516,8.088
26.52,8.008
26.524,8.004
26.528,8.112
26.532,8.072
26.536,8.028
26.54,8.02
26.544,8.116
26.548,8.092
26.552,8.04
26.556,7.988
26.56,8.06
26.564,8.132
26.568,8.06
26.572,7.952
26.576,8.072
26.58,8.096
26.584,8.064
26.588,7.992
26.592,8.068
26.596,8.128
26.6,8.068
26.604,8
26.608,8.044
26.612,8.112
26.616,8.064
26.62,7.996
26.624,7.992
26.628,8.108
26.632,8.068
26.636,8
26.64,8
26.644,8.092
26.648,8.064
26.652,8.008
26.656,7.956
26.66,8.068
26.664,8.044
26.668,8.02
26.672,7.92
26.676,8.04
26.68,8.1
26.684,8.012
26.688,7.928
26.692,8.008
26.696,8.084
26.7,8.048
26.704,7.976
26.708,8.008
26.712,8.116
26.716,8.052
26.72,7.976
26.724,7.948
26.728,8.056
26.732,8.024
26.736,7.992
26.74,7.948
26.744,8.064
26.748,8.04
26.752,7.976
26.756,7.916
26.76,8.028
26.764,8.052
26.768,8.016
26.772,7.932
26.776,8.052
26.78,8.132
26.784,8.088
26.788,8.004
26.792,8.088
26.796,8.188
26.8,8.172
26.804,8.128
26.808,8.164
26.812,8.228
26.816,8.184
26.82,8.084
26.824,8.072
26.828,8.196
26.832,8.164
26.836,8.06
26.84,8
26.844,8.092
26.848,8.044
26.852,7.936
26.856,7.876
26.86,7.988
26.864,8.036
26.868,7.952
26.872,7.876
26.876,7.944
26.88,8.036
26.884,7.976
26.888,7.86
26.892,7.956
26.896,8.052
26.9,7.972
26.904,7.788
26.908,7.852
26.912,8.3
26.916,8.748
26.92,9.256
26.924,9.976
26.928,10.788
26.932,11.228
26.936,10.924
26.94,9.652
26.944,8.612
26.948,7.972
26.952,7.744
26.956,7.74
26.96,7.928
26.964,8.032
26.968,8.044
26.972,7.944
26.976,8.068
26.98,8.136
26.984,8.072
26.988,7.98
26.992,8.052
26.996,8.148
27,8.08
27.004,8.032
27.008,8.052
27.012,8.172
27.016,8.136
27.02,8.052
27.024,8.072
27.028,8.204
27.032,8.16
27.036,8.088
27.04,8.048
27.044,8.208
27.048,8.216
27.052,8.168
27.056,8.116
27.06,8.248
27.064,8.272
27.068,8.24
27.072,8.188
27.076,8.304
27.08,8.372
27.084,8.316
27.088,8.276
27.092,8.34
27.096,8.468
27.1,8.432
27.104,8.368
27.108,8.404
27.112,8.564
27.116,8.568
27.12,8.532
27.124,8.584
27.128,8.756
27.132,8.756
27.136,8.732
27.14,8.744
27.144,8.952
27.148,8.984
27.152,9
27.156,9.008
27.16,9.164
27.164,9.224
27.168,9.18
27.172,9.092
27.176,9.2
27.18,9.252
27.184,9.124
27.188,8.992
27.192,8.964
27.196,8.972
27.2,8.748
27.204,8.536
27.208,8.468
27.212,8.52
27.216,8.4
27.22,8.264
27.224,8.176
27.228,8.28
27.232,8.184
27.236,8.08
27.24,8.012
27.244,8.116
27.248,8.104
27.252,8.052
27.256,7.956
27.26,8.076
27.264,8.116
27.268,8.02
27.272,7.964
27.276,8.02
27.28,8.088
27.284,8.036
27.288,7.96
27.292,7.996
27.296,8.1
27.3,8.036
27.304,7.96
27.308,7.988
27.312,8.1
27.316,8.072
27.32,7.976
27.324,7.984
27.328,8.096
27.332,8.056
27.336,8
27.34,7.956
27.344,8.08
27.348,8.1
27.352,8.024
27.356,7.976
27.36,8.068
27.364,8.104
27.368,8.016
27.372,7.976
27.376,8.036
27.38,8.124
27.384,8.068
27.388,7.964
27.392,7.988
27.396,8.116
27.4,8.056
27.404,7.972
27.408,7.968
27.412,8.112
27.416,8.052
27.42,7.992
27.424,7.98
27.428,8.092
27.432,8.06
27.436,7.984
27.44,7.944
27.444,8.084
27.448,8.072
27.452,8.004
27.456,7.96
27.46,8.028
27.464,8.068
27.468,8
27.472,7.96
27.476,7.984
27.48,8.092
27.484,8.012
27.488,7.96
27.492,7.968
27.496,8.1
27.5,7.976
27.504,7.948
27.508,7.94
27.512,8.088
27.516,8.032
27.52,7.96
27.524,7.976
27.528,8.148
27.532,8.116
27.536,8.096
27.54,8.064
27.544,8.184
27.548,8.228
27.552,8.216
27.556,8.136
27.56,8.196
27.564,8.236
27.568,8.156
27.572,8.06
27.576,8.084
27.58,8.208
27.584,8.104
27.588,8.016
27.592,8.004
27.596,8.1
27.6,7.996
27.604,7.932
27.608,7.908
27.612,8.064
27.616,8
27.62,7.896
27.624,7.932
27.628,8.036
27.632,8.016
27.636,7.956
27.64,7.94
27.644,8.02
27.648,7.996
27.652,7.84
27.656,7.948
27.66,8.396
27.664,8.988
27.668,9.516
27.672,10.228
27.676,10.948
27.68,11.508
27.684,10.848
27.688,9.436
27.692,8.332
27.696,8.004
27.7,7.856
27.704,7.892
27.708,7.928
27.712,8.128
27.716,8.112
27.72,8.068
27.724,8.052
27.728,8.176
27.732,8.12
27.736,8.056
27.74,8.036
27.744,8.144
27.748,8.18
27.752,8.088
27.756,8.052
27.76,8.144
27.764,8.208
27.768,8.12
27.772,8.072
27.776,8.128
27.78,8.264
27.784,8.18
27.788,8.14
27.792,8.148
27.796,8.3
27.8,8.204
27.804,8.196
27.808,8.196
27.812,8.336
27.816,8.308
27.82,8.252
27.824,8.264
27.828,8.38
27.832,8.384
27.836,8.328
27.84,8.312
27.844,8.46
27.848,8.48
27.852,8.44
27.856,8.448
27.86,8.544
27.864,8.652
27.868,8.588
27.872,8.62
27.876,8.724
27.88,8.872
27.884,8.804
27.888,8.82
27.892,8.892
27.896,9.068
27.9,9.056
27.904,9.036
27.908,9.108
27.912,9.236
27.916,9.224
27.92,9.176
27.924,9.16
27.928,9.256
27.932,9.176
27.936,9.052
27.94,8.936
27.944,8.896
27.948,8.828
27.952,8.632
27.956,8.472
27.96,8.476
27.964,8.448
27.968,8.328
27.972,8.224
27.976,8.232
27.98,8.284
27.984,8.152
27.988,8.084
27.992,8.092
27.996,8.216
28,8.116
28.004,8.072
28.008,8.088
28.012,8.2
28.016,8.104
28.02,8.076
28.024,8.056
28.028,8.168
28.032,8.108
28.036,8.064
28.04,8.04
28.044,8.136
28.048,8.144
28.052,8.072
28.056,8.044
28.06,8.116
28.064,8.16
28.068,8.084
28.072,8.064
28.076,8.084
28.08,8.204
28.084,8.068
28.088,8.064
28.092,8.076
28.096,8.176
28.1,8.092
28.104,8.064
28.108,8.076
28.112,8.2
28.116,8.1
28.12,8.056
28.124,8.06
28.128,8.156
28.132,8.152
28.136,8.06
28.14,8.088
28.144,8.168
28.148,8.144
28.152,8.068
28.156,8.072
28.16,8.124
28.164,8.172
28.168,8.072
28.172,8.048
28.176,8.092
28.18,8.176
28.184,8.06
28.188,8.036
28.192,8.06
28.196,8.168
28.2,8.08
28.204,8.048
28.208,8.056
28.212,8.172
28.216,8.124
28.22,8.024
28.224,8.044
28.228,8.124
28.232,8.12
28.236,8.028
28.24,8.036
28.244,8.108
28.248,8.156
28.252,8.016
28.256,8.024
28.26,8.08
28.264,8.168
28.268,8.016
28.272,8.012
28.276,8.064
28.28,8.16
28.284,8.052
28.288,8.016
28.292,8.052
28.296,8.18
28.3,8.132
28.304,8.076
28.308,8.156
28.312,8.248
28.316,8.232
28.32,8.144
28.324,8.22
28.328,8.324
28.332,8.352
28.336,8.172
28.34,8.216
28.344,8.26
28.348,8.268
28.352,8.12
28.356,8.152
28.36,8.212
28.364,8.228
28.368,8.072
28.372,8.028
28.376,8.068
28.38,8.132
28.384,8.028
28.388,7.956
28.392,8.008
28.396,8.128
28.4,8.068
28.404,7.96
28.408,8.036
28.412,8.148
28.416,8.108
28.42,7.956
28.424,7.948
28.428,8
28.432,8.176
28.436,8.436
28.44,9.028
28.444,9.672
28.448,10.452
28.452,11
28.456,11.356
28.46,10.78
28.464,9.408
28.468,8.268
28.472,7.912
28.476,8.012
28.48,8.116
28.484,8.1
28.488,8.016
28.492,8.148
28.496,8.252
28.5,8.188
28.504,8.084
28.508,8.12
28.512,8.216
28.516,8.224
28.52,8.072
28.524,8.136
28.528,8.248
28.532,8.236
28.536,8.124
28.54,8.136
28.544,8.264
28.548,8.284
28.552,8.18
28.556,8.168
28.56,8.276
28.564,8.312
28.568,8.236
28.572,8.188
28.576,8.296
28.58,8.368
28.584,8.312
28.588,8.24
28.592,8.336
28.596,8.444
28.6,8.392
28.604,8.296
28.608,8.392
28.612,8.496
28.616,8.484
28.62,8.388
28.624,8.468
28.628,8.596
28.632,8.616
28.636,8.532
28.64,8.576
28.644,8.704
28.648,8.8
28.652,8.732
28.656,8.768
28.66,8.9
28.664,9.036
28.668,8.992
28.672,8.972
28.676,9.104
28.68,9.24
28.684,9.228
28.688,9.112
28.692,9.272
28.696,9.388
28.7,9.352
28.704,9.164
28.708,9.196
28.712,9.232
28.716,9.092
28.72,8.852
28.724,8.812
28.728,8.784
28.732,8.688
28.736,8.48
28.74,8.404
28.744,8.456
28.748,8.432
28.752,8.268
28.756,8.172
28.76,8.26
28.764,8.308
28.768,8.204
28.772,8.072
28.776,8.184
28.78,8.272
28.784,8.212
28.788,8.04
28.792,8.156
28.796,8.28
28.8,8.22
28.804,8.052
28.808,8.144
28.812,8.256
28.816,8.228
28.82,8.08
28.824,8.076
28.828,8.248
28.832,8.216
28.836,8.124
28.84,8.064
28.844,8.236
28.848,8.224
28.852,8.152
28.856,8.032
28.86,8.216
28.864,8.248
28.868,8.176
28.872,8.052
28.876,8.18
28.88,8.28
28.884,8.204
28.888,8.084
28.892,8.096
28.896,8.332
28.9,8.24
28.904,8.092
28.908,8.044
28.912,8.292
28.916,8.244
28.92,8.128
28.924,8.056
28.928,8.288
28.932,8.26
28.936,8.152
28.94,8.056
28.944,8.196
28.948,8.256
28.952,8.16
28.956,8.04
28.96,8.168
28.964,8.276
28.968,8.168
28.972,8.032
28.976,8.06
28.98,8.256
28.984,8.168
28.988,8.064
28.992,8.032
28.996,8.264
29,8.192
29.004,8.072
29.008,8.016
29.012,8.24
29.016,8.22
29.02,8.084
29.024,8.06
29.028,8.228
29.032,8.232
29.036,8.104
29.04,8.032
29.044,8.188
29.048,8.22
29.052,8.116
29.056,8.088
29.06,8.156
29.064,8.212
29.068,8.148
29.072,8.064
29.076,8.136
29.08,8.212
29.084,8.164
29.088,8.084
29.092,8.112
29.096,8.204
29.1,8.164
29.104,8.088
29.108,8.156
29.112,8.24
29.116,8.236
29.12,8.196
29.124,8.208
29.128,8.34
29.132,8.36
29.136,8.34
29.14,8.256
29.144,8.312
29.148,8.328
29.152,8.268
29.156,8.176
29.16,8.248
29.164,8.28
29.168,8.22
29.172,8.124
29.176,8.1
29.18,8.192
29.184,8.1
29.188,8.04
29.192,8.072
29.196,8.172
29.2,8.108
29.204,8.048
29.208,8.032
29.212,8.14
29.216,8.128
29.22,8.056
29.224,8.052
29.228,8.104
29.232,8.064
29.236,7.956
29.24,8.2
29.244,8.688
29.248,9.236
29.252,9.796
29.256,10.56
29.26,11.212
29.264,11.436
29.268,10.332
29.272,8.94
29.276,8.2
29.28,8.076
29.284,8.084
29.288,8.004
29.292,8.108
29.296,8.256
29.3,8.248
29.304,8.136
29.308,8.12
29.312,8.252
29.316,8.236
29.32,8.128
29.324,8.108
29.328,8.244
29.332,8.244
29.336,8.176
29.34,8.112
29.344,8.244
29.348,8.312
29.352,8.236
29.356,8.168
29.36,8.244
29.364,8.352
29.368,8.28
29.372,8.172
29.376,8.264
29.38,8.4
29.384,8.352
29.388,8.252
29.392,8.288
29.396,8.44
29.4,8.4
29.404,8.308
29.408,8.34
29.412,8.472
29.416,8.48
29.42,8.372
29.424,8.416
29.428,8.508
29.432,8.604
29.436,8.504
29.44,8.52
29.444,8.644
29.448,8.756
29.452,8.7
29.456,8.688
29.46,8.824
29.464,8.936
29.468,8.916
29.472,8.88
29.476,9
29.48,9.192
29.484,9.192
29.488,9.076
29.492,9.172
29.496,9.348
29.5,9.316
29.504,9.212
29.508,9.264
29.512,9.356
29.516,9.288
29.52,9.092
29.524,9.008
29.528,8.98
29.532,8.884
29.536,8.668
29.54,8.572
29.544,8.548
29.548,8.544
29.552,8.376
29.556,8.268
29.56,8.296
29.564,8.336
29.568,8.22
29.572,8.112
29.576,8.16
29.58,8.24
29.584,8.188
29.588,8.072
29.592,8.128
29.596,8.224
29.6,8.164
29.604,8.068
29.608,8.1
29.612,8.208
29.616,8.188
29.62,8.088
29.624,8.064
29.628,8.172
29.632,8.22
29.636,8.088
29.64,8.06
29.644,8.192
29.648,8.216
29.652,8.14
29.656,8.072
29.66,8.168
29.664,8.22
29.668,8.16
29.672,8.06
29.676,8.144
29.68,8.264
29.684,8.172
29.688,8.06
29.692,8.104
29.696,8.224
29.7,8.2
29.704,8.08
29.708,8.1
29.712,8.236
29.716,8.224
29.72,8.096
29.724,8.072
29.728,8.16
29.732,8.168
29.736,8.1
29.74,8.044
29.744,8.172
29.748,8.212
29.752,8.128
29.756,8.008
29.76,8.124
29.764,8.192
29.768,8.104
29.772,7.992
29.776,8.112
29.78,8.212
29.784,8.144
29.788,7.996
29.792,8.068
29.796,8.184
29.8,8.12
29.804,7.988
29.808,8.064
29.812,8.176
29.816,8.156
29.82,8.012
29.824,8.004
29.828,8.132
29.832,8.152
29.836,8.048
29.84,8.016
29.844,8.132
29.848,8.184
29.852,8.068
29.856,8
29.86,8.1
29.864,8.156
29.868,8.08
29.872,8.016
29.876,8.08
29.88,8.172
29.884,8.1
29.888,7.988
29.892,8.036
29.896,8.144
29.9,8.096
29.904,8.008
29.908,8.036
29.912,8.156
29.916,8.16
29.92,8.044
29.924,8.024
29.928,8.112
29.932,8.132
29.936,8.016
29.94,7.996
29.944,8.104
29.948,8.168
29.952,8.104
29.956,8.068
29.96,8.156
29.964,8.248
29.968,8.18
29.972,8.12
29.976,8.236
29.98,8.36
29.984,8.288
29.988,8.144
29.992,8.176
29.996,8.264
30,8.2
30.004,8.088
30.008,8.136
30.012,8.18
30.016,8.144
30.02,8.004
30.024,7.98
30.028,8.064
30.032,8.088
30.036,7.992
30.04,7.976
30.044,8.052
30.048,8.08
30.052,7.992
30.056,7.948
30.06,8.04
30.064,8.096
30.068,8.04
30.072,7.9
30.076,7.924
30.08,8.016
30.084,8.212
30.088,8.504
30.092,9.072
30.096,9.804
30.1,10.536
30.104,11.028
30.108,11.244
30.112,10.284
30.116,9.012
30.12,8.088
30.124,7.816
30.128,7.976
30.132,8.04
30.136,7.964
30.14,8.036
30.144,8.164
30.148,8.212
30.152,8.104
30.156,8.016
30.16,8.12
30.164,8.176
30.168,8.124
30.172,8.032
30.176,8.14
30.18,8.22
30.184,8.156
30.188,8.056
30.192,8.108
30.196,8.256
30.2,8.22
30.204,8.116
30.208,8.176
30.212,8.272
30.216,8.268
30.22,8.152
30.224,8.176
30.228,8.272
30.232,8.304
30.236,8.22
30.24,8.196
30.244,8.308
30.248,8.368
30.252,8.292
30.256,8.264
30.26,8.356
30.264,8.456
30.268,8.416
30.272,8.336
30.276,8.444
30.28,8.548
30.284,8.544
30.288,8.456
30.292,8.548
30.296,8.7
30.3,8.716
30.304,8.644
30.308,8.748
30.312,8.896
30.316,8.936
30.32,8.872
30.324,8.944
30.328,9.088
30.332,9.148
30.336,9.12
30.34,9.12
30.344,9.22
30.348,9.312
30.352,9.228
30.356,9.156
30.36,9.184
30.364,9.188
30.368,8.996
30.372,8.776
30.376,8.748
30.38,8.736
30.384,8.544
30.388,8.364
30.392,8.34
30.396,8.38
30.4,8.32
30.404,8.124
30.408,8.148
30.412,8.2
30.416,8.176
30.42,8.036
30.424,8.04
30.428,8.144
30.432,8.152
30.436,8.048
30.44,7.996
30.444,8.076
30.448,8.132
30.452,8.032
30.456,7.964
30.46,8.028
30.464,8.12
30.468,8.06
30.472,7.976
30.476,8.032
30.48,8.112
30.484,8.06
30.488,7.964
30.492,8.004
30.496,8.116
30.5,8.108
30.504,7.98
30.508,8.032
30.512,8.104
30.516,8.088
30.52,7.996
30.524,7.98
30.528,8.072
30.532,8.132
30.536,8.02
30.54,8.016
30.544,8.084
30.548,8.124
30.552,8.016
30.556,7.968
30.56,8.02
30.564,8.104
30.568,8.048
30.572,7.928
30.576,8.016
30.58,8.12
30.584,8.048
30.588,7.928
30.592,7.976
30.596,8.112
30.6,8.072
30.604,7.936
30.608,7.976
30.612,8.056
30.616,8.072
30.62,7.94
30.624,7.964
30.628,8.032
30.632,8.084
30.636,7.976
30.64,7.932
30.644,8.024
30.648,8.08
30.652,8.02
30.656,7.928
30.66,8.004
30.664,8.096
30.668,8.028
30.672,7.892
30.676,7.988
30.68,8.064
30.684,8.044
30.688,7.904
30.692,7.956
30.696,8.104
30.7,8.072
30.704,7.904
30.708,7.968
30.712,8.08
30.716,8.072
30.72,7.932
30.724,7.952
30.728,8.016
30.732,8.072
30.736,7.96
30.74,7.976
30.744,8.08
30.748,8.128
30.752,8.084
30.756,8.04
30.76,8.12
30.764,8.264
30.768,8.228
30.772,8.12
30.776,8.136
30.78,8.22
30.784,8.152
30.788,8.02
30.792,8.092
30.796,8.196
30.8,8.128
30.804,7.996
30.808,7.988
30.812,8.056
30.816,8.024
30.82,7.9
30.824,7.904
30.828,7.988
30.832,8.004
30.836,7.94
30.84,7.896
30.844,7.98
30.848,8.028
30.852,7.96
30.856,7.876
30.86,7.98
30.864,8.012
30.868,7.864
30.872,7.808
30.876,8.196
30.88,8.712
30.884,9.256
30.888,9.772
30.892,10.604
30.896,11.168
30.9,11.18
30.904,9.816
30.908,8.616
30.912,7.976
30.916,7.88
30.92,7.848
30.924,7.876
30.928,7.948
30.932,8.12
30.936,8.036
30.94,8.008
30.944,8.032
30.948,8.172
30.952,8.076
30.956,7.988
30.96,8.044
30.964,8.168
30.968,8.108
30.972,7.988
30.976,8.044
30.98,8.196
30.984,8.168
30.988,8.028
30.992,8.1
30.996,8.216
31,8.228
31.004,8.08
31.008,8.108
31.012,8.196
31.016,8.252
31.02,8.148
31.024,8.16
31.028,8.248
31.032,8.324
31.036,8.228
31.04,8.176
31.044,8.252
31.048,8.392
31.052,8.3
31.056,8.288
31.06,8.3
31.064,8.488
31.068,8.456
31.072,8.356
31.076,8.416
31.08,8.62
31.084,8.608
31.088,8.544
31.092,8.616
31.096,8.796
31.1,8.84
31.104,8.744
31.108,8.82
31.112,8.94
31.116,9.088
31.12,8.996
31.124,9.032
31.128,9.104
31.132,9.268
31.136,9.168
31.14,9.128
31.144,9.172
31.148,9.276
31.152,9.136
31.156,8.952
31.16,8.888
31.164,8.92
31.168,8.708
31.172,8.508
31.176,8.424
31.18,8.512
31.184,8.38
31.188,8.188
31.192,8.168
31.196,8.232
31.2,8.192
31.204,8.024
31.208,8.004
31.212,8.104
31.216,8.132
31.22,7.992
31.224,7.956
31.228,8.036
31.232,8.148
31.236,8.012
31.24,7.976
31.244,7.976
31.248,8.156
31.252,8.04
31.256,7.952
31.26,7.948
31.264,8.14
31.268,8.048
31.272,7.94
31.276,7.956
31.28,8.128
31.284,8.1
31.288,7.952
31.292,7.968
31.296,8.112
31.3,8.112
31.304,7.952
31.308,7.956
31.312,8.08
31.316,8.128
31.32,7.996
31.324,7.952
31.328,8.008
31.332,8.14
31.336,8.016
31.34,7.972
31.344,8
31.348,8.156
31.352,8.056
31.356,7.96
31.36,7.98
31.364,8.148
31.368,8.056
31.372,7.936
31.376,7.944
31.38,8.12
31.384,8.076
31.388,7.96
31.392,7.936
31.396,8.084
31.4,8.072
31.404,7.944
31.408,7.912
31.412,8.04
31.416,8.092
31.42,7.964
31.424,7.936
31.428,8.008
31.432,8.08
31.436,7.996
31.44,7.884
31.444,7.964
31.448,8.08
31.452,7.98
31.456,7.904
31.46,7.952
31.464,8.104
31.468,8.028
31.472,7.9
31.476,7.936
31.48,8.124
31.484,8.032
31.488,7.924
31.492,7.904
31.496,8.068
31.5,8.064
31.504,7.916
31.508,7.888
31.512,8.048
31.516,8.08
31.52,7.932
31.524,7.9
31.528,8.004
31.532,8.056
31.536,7.964
31.54,7.912
31.544,7.952
31.548,8.112
31.552,8.044
31.556,7.968
31.56,8.036
31.564,8.204
31.568,8.136
31.572,8.052
31.576,8.084
31.58,8.3
31.584,8.22
31.588,8.088
31.592,8.072
31.596,8.212
31.6,8.184
31.604,8.02
31.608,8.024
31.612,8.148
31.616,8.124
31.62,7.972
31.624,7.9
31.628,8
31.632,8.032
31.636,7.932
31.64,7.872
31.644,7.944
31.648,8.064
31.652,7.96
31.656,7.864
31.66,7.904
31.664,8.076
31.668,7.984
31.672,7.864
31.676,7.848
31.68,7.968
31.684,8.072
31.688,8.28
31.692,8.808
31.696,9.556
31.7,10.248
31.704,10.808
31.708,11.176
31.712,10.752
31.716,9.356
31.72,8.248
31.724,7.772
31.728,7.892
31.732,7.992
31.736,7.932
31.74,7.92
31.744,8.072
31.748,8.18
31.752,8.096
31.756,7.988
31.76,8.028
31.764,8.164
31.768,8.084
31.772,7.972
31.776,8.02
31.78,8.192
31.784,8.12
31.788,8.008
31.792,8.004
31.796,8.208
31.8,8.184
31.804,8.06
31.808,8.056
31.812,8.216
31.816,8.224
31.82,8.116
31.824,8.1
31.828,8.236
31.832,8.272
31.836,8.16
31.84,8.116
31.844,8.24
31.848,8.344
31.852,8.248
31.856,8.184
31.86,8.248
31.864,8.428
31.868,8.356
31.872,8.296
31.876,8.348
31.88,8.52
31.884,8.496
31.888,8.408
31.892,8.428
31.896,8.656
31.9,8.656
31.904,8.584
31.908,8.632
31.912,8.86
31.916,8.908
31.92,8.828
31.924,8.848
31.928,9.044
31.932,9.14
31.936,9.076
31.94,9.036
31.944,9.196
31.948,9.28
31.952,9.196
31.956,9.112
31.96,9.14
31.964,9.184
31.968,9.004
31.972,8.8
31.976,8.7
31.98,8.756
31.984,8.584
31.988,8.372
31.992,8.272
31.996,8.412
32,8.32
32.004,8.148
32.008,8.068
32.012,8.224
32.016,8.192
32.02,8.04
32.024,7.996
32.028,8.112
32.032,8.148
32.036,8.044
32.04,7.976
32.044,8.064
32.048,8.148
32.052,8.044
32.056,7.936
32.06,8.008
32.064,8.12
32.068,8.032
32.072,7.932
32.076,7.968
32.08,8.136
32.084,8.088
32.088,7.952
32.092,7.944
32.096,8.112
32.1,8.084
32.104,7.972
32.108,7.952
32.112,8.12
32.116,8.116
32.12,8
32.124,7.952
32.128,8.096
32.132,8.108
32.136,8.02
32.14,7.936
32.144,8.04
32.148,8.148
32.152,8.02
32.156,7.96
32.16,8.036
32.164,8.132
32.168,8.044
32.172,7.948
32.176,7.972
32.18,8.112
32.184,8.048
32.188,7.94
32.192,7.944
32.196,8.092
32.2,8.068
32.204,7.956
32.208,7.936
32.212,8.096
32.216,8.104
32.22,7.972
32.224,7.936
32.228,8.06
32.232,8.088
32.236,8.012
32.24,7.944
32.244,8.04
32.248,8.1
32.252,8.036
32.256,7.928
32.26,7.988
32.264,8.116
32.268,8.024
32.272,7.912
32.276,7.932
32.28,8.104
32.284,8.024
32.288,7.916
32.292,7.932
32.296,8.096
32.3,8.06
32.304,7.948
32.308,7.908
32.312,8.084
32.316,8.076
32.32,7.96
32.324,7.948
32.328,8.076
32.332,8.128
32.336,8.016
32.34,7.936
32.344,8.016
32.348,8.1
32.352,8.008
32.356,7.98
32.36,8.052
32.364,8.192
32.368,8.132
32.372,8.016
32.376,8.104
32.38,8.296
32.384,8.264
32.388,8.144
32.392,8.12
32.396,8.264
32.4,8.24
32.404,8.1
32.408,8.028
32.412,8.2
32.416,8.188
32.42,8.044
32.424,7.952
32.428,8.092
32.432,8.056
32.436,7.956
32.44,7.86
32.444,7.972
32.448,8.06
32.452,7.98
32.456,7.86
32.46,7.944
32.464,8.092
32.468,8.004
32.472,7.908
32.476,7.924
32.48,8.06
32.484,7.92
32.488,7.884
32.492,8.22
32.496,8.888
32.5,9.368
32.504,9.984
32.508,10.684
32.512,11.304
32.516,11.036
32.52,9.604
32.524,8.436
32.528,8.024
32.532,7.94
32.536,7.908
32.54,7.904
32.544,8.036
32.548,8.14
32.552,8.092
32.556,8.012
32.56,8.084
32.564,8.2
32.568,8.128
32.572,8
32.576,8.068
32.58,8.196
32.584,8.156
32.588,8.028
32.592,8.052
32.596,8.216
32.6,8.212
32.604,8.108
32.608,8.1
32.612,8.232
32.616,8.232
32.62,8.152
32.624,8.096
32.628,8.224
32.632,8.276
32.636,8.224
32.64,8.168
32.644,8.296
32.648,8.372
32.652,8.296
32.656,8.244
32.66,8.316
32.664,8.432
32.668,8.388
32.672,8.284
32.676,8.368
32.68,8.532
32.684,8.508
32.688,8.396
32.692,8.456
32.696,8.64
32.7,8.644
32.704,8.608
32.708,8.62
32.712,8.828
32.716,8.892
32.72,8.84
32.724,8.844
32.728,9.032
32.732,9.1
32.736,9.08
32.74,9.052
32.744,9.184
32.748,9.312
32.752,9.276
32.756,9.176
32.76,9.224
32.764,9.328
32.768,9.188
32.772,8.984
32.776,8.932
32.78,8.956
32.784,8.776
32.788,8.568
32.792,8.452
32.796,8.556
32.8,8.448
32.804,8.248
32.808,8.188
32.812,8.3
32.816,8.26
32.82,8.116
32.824,8.056
32.828,8.164
32.832,8.224
32.836,8.108
32.84,8.02
32.844,8.12
32.848,8.176
32.852,8.088
32.856,7.992
32.86,8.06
32.864,8.172
32.868,8.104
32.872,7.988
32.876,8.02
32.88,8.172
32.884,8.136
32.888,8.008
32.892,8.02
32.896,8.16
32.9,8.144
32.904,8.016
32.908,7.992
32.912,8.144
32.916,8.14
32.92,8.052
32.924,8.004
32.928,8.108
32.932,8.164
32.936,8.076
32.94,8.008
32.944,8.108
32.948,8.18
32.952,8.124
32.956,8
32.96,8.092
32.964,8.184
32.968,8.096
32.972,8.016
32.976,8.02
32.98,8.148
32.984,8.128
32.988,8.004
32.992,7.976
32.996,8.156
33,8.124
33.004,8.012
33.008,7.984
33.012,8.112
33.016,8.148
33.02,8.004
33.024,7.956
33.028,8.084
33.032,8.14
33.036,8.04
33.04,7.984
33.044,8.068
33.048,8.152
33.052,8.084
33.056,7.98
33.06,8.036
33.064,8.14
33.068,8.076
33.072,7.968
33.076,8.004
33.08,8.156
33.084,8.096
33.088,7.976
33.092,7.968
33.096,8.124
33.1,8.1
33.104,7.976
33.108,7.94
33.112,8.104
33.116,8.108
33.12,7.996
33.124,7.964
33.128,8.092
33.132,8.168
33.136,8.068
33.14,8.024
33.144,8.136
33.148,8.228
33.152,8.196
33.156,8.14
33.16,8.232
33.164,8.308
33.168,8.212
33.172,8.072
33.176,8.076
33.18,8.228
33.184,8.208
33.188,8.052
33.192,8.056
33.196,8.128
33.2,8.08
33.204,7.944
33.208,7.904
33.212,8.028
33.216,8.044
33.22,7.948
33.224,7.912
33.228,8.008
33.232,8.036
33.236,7.944
33.24,7.896
33.244,7.988
33.248,8.064
33.252,7.952
33.256,7.784
33.26,7.896
33.264,8.288
33.268,8.664
33.272,9.128
33.276,9.852
33.28,10.736
33.284,11.184
33.288,11.072
33.292,9.852
33.296,8.776
33.3,8.076
33.304,7.76
33.308,7.804
33.312,8.032
33.316,8.072
33.32,8.04
33.324,7.992
33.328,8.136
33.332,8.184
33.336,8.1
33.34,8.012
33.344,8.084
33.348,8.168
33.352,8.104
33.356,8.028
33.36,8.096
33.364,8.208
33.368,8.16
33.372,8.044
33.376,8.096
33.38,8.248
33.384,8.248
33.388,8.112
33.392,8.128
33.396,8.26
33.4,8.284
33.404,8.16
33.408,8.176
33.412,8.304
33.416,8.332
33.42,8.22
33.424,8.192
33.428,8.336
33.432,8.376
33.436,8.34
33.44,8.3
33.444,8.396
33.448,8.488
33.452,8.472
33.456,8.388
33.46,8.46
33.464,8.62
33.468,8.584
33.472,8.504
33.476,8.576
33.48,8.788
33.484,8.796
33.488,8.704
33.492,8.752
33.496,8.988
33.5,9
33.504,8.948
33.508,8.976
33.512,9.168
33.516,9.244
33.52,9.172
33.524,9.152
33.528,9.252
33.532,9.304
33.536,9.184
33.54,9.048
33.544,9.06
33.548,9.036
33.552,8.832
33.556,8.608
33.56,8.572
33.564,8.592
33.568,8.464
33.572,8.28
33.576,8.236
33.58,8.328
33.584,8.264
33.588,8.088
33.592,8.044
33.596,8.192
33.6,8.168
33.604,8.044
33.608,8.02
33.612,8.132
33.616,8.172
33.62,8.024
33.624,8.012
33.628,8.052
33.632,8.148
33.636,8.072
33.64,7.98
33.644,8.072
33.648,8.144
33.652,8.056
33.656,7.976
33.66,8.008
33.664,8.148
33.668,8.088
33.672,7.952
33.676,8.008
33.68,8.136
33.684,8.108
33.688,7.952
33.692,7.976
33.696,8.124
33.7,8.108
33.704,7.988
33.708,7.988
33.712,8.116
33.716,8.152
33.72,8.012
33.724,7.972
33.728,8.048
33.732,8.12
33.736,8.044
33.74,7.976
33.744,8.048
33.748,8.124
33.752,8.04
33.756,7.928
33.76,7.984
33.764,8.112
33.768,8.044
33.772,7.948
33.776,7.992
33.78,8.124
33.784,8.064
33.788,7.924
33.792,7.928
33.796,8.036
33.8,8.048
33.804,7.952
33.808,7.936
33.812,8.052
33.816,8.068
33.82,7.948
33.824,7.904
33.828,8.012
33.832,8.072
33.836,8.004
33.84,7.9
33.844,7.988
33.848,8.08
33.852,7.988
33.856,7.896
33.86,7.96
33.864,8.08
33.868,8.024
33.872,7.884
33.876,7.932
33.88,8.076
33.884,8.048
33.888,7.936
33.892,7.98
33.896,8.136
33.9,8.156
33.904,8.032
33.908,8.064
33.912,8.22
33.916,8.272
33.92,8.08
33.924,8.072
33.928,8.148
33.932,8.204
33.936,8.096
33.94,8.012
33.944,8.084
33.948,8.124
33.952,8.032
33.956,7.864
33.96,7.904
33.964,8.028
33.968,7.956
33.972,7.864
33.976,7.888
33.98,7.988
33.984,7.968
33.988,7.844
33.992,7.844
33.996,7.98
34,7.996
34.004,7.864
34.008,7.776
34.012,7.84
34.016,8.044
34.02,8.324
34.024,8.836
34.028,9.62
34.032,10.42
34.036,10.996
34.04,11.18
34.044,10.524
34.048,9.3
34.052,8.252
34.056,7.696
34.06,7.712
34.064,7.912
34.068,7.92
34.072,7.876
34.076,7.936
34.08,8.112
34.084,8.076
34.088,7.964
34.092,7.932
34.096,8.088
34.1,8.104
34.104,7.972
34.108,7.968
34.112,8.092
34.116,8.116
34.12,8.02
34.124,7.976
34.128,8.072
34.132,8.176
34.136,8.108
34.14,8.004
34.144,8.084
34.148,8.212
34.152,8.136
34.156,8.012
34.16,8.1
34.164,8.264
34.168,8.216
34.172,8.092
34.176,8.116
34.18,8.272
34.184,8.256
34.188,8.12
34.192,8.18
34.196,8.356
34.2,8.368
34.204,8.284
34.208,8.284
34.212,8.404
34.216,8.472
34.22,8.408
34.224,8.388
34.228,8.556
34.232,8.66
34.236,8.616
34.24,8.608
34.244,8.728
34.248,8.884
34.252,8.856
34.256,8.788
34.26,8.908
34.264,9.076
34.268,9.056
34.272,8.988
34.276,9.036
34.28,9.192
34.284,9.176
34.288,9.016
34.292,8.96
34.296,9.04
34.3,8.928
34.304,8.7
34.308,8.564
34.312,8.556
34.316,8.492
34.32,8.304
34.324,8.168
34.328,8.212
34.332,8.244
34.336,8.08
34.34,7.992
34.344,8.028
34.348,8.092
34.352,8.016
34.356,7.884
34.36,7.936
34.364,8.056
34.368,7.996
34.372,7.864
34.376,7.864
34.38,8.028
34.384,8.024
34.388,7.86
34.392,7.832
34.396,8.008
34.4,8.028
34.404,7.904
34.408,7.868
34.412,7.976
34.416,8.056
34.42,7.932
34.424,7.868
34.428,7.996
34.432,8.048
34.436,7.956
34.44,7.888
34.444,7.932
34.448,8.016
34.452,7.992
34.456,7.852
34.46,7.912
34.464,8.04
34.468,7.988
34.472,7.868
34.476,7.892
34.48,8.032
34.484,7.992
34.488,7.864
34.492,7.88
34.496,8.008
34.5,8.012
34.504,7.892
34.508,7.872
34.512,7.968
34.516,8.02
34.52,7.924
34.524,7.864
34.528,7.944
34.532,8.032
34.536,7.932
34.54,7.832
34.544,7.908
34.548,8.024
34.552,7.944
34.556,7.824
34.56,7.896
34.564,8.032
34.568,7.976
34.572,7.836
34.576,7.864
34.58,7.996
34.584,7.984
34.588,7.856
34.592,7.844
34.596,7.968
34.6,7.972
34.604,7.84
34.608,7.848
34.612,7.964
34.616,8.036
34.62,7.948
34.624,7.904
34.628,8.008
34.632,8.12
34.636,8.08
34.64,7.976
34.644,8.084
34.648,8.244
34.652,8.136
34.656,8.016
34.66,8.024
34.664,8.148
34.668,8.1
34.672,7.944
34.676,7.972
34.68,8.088
34.684,8.048
34.688,7.864
34.692,7.856
34.696,7.968
34.7,7.972
34.704,7.848
34.708,7.808
34.712,7.932
34.716,7.976
34.72,7.864
34.724,7.824
34.728,7.904
34.732,7.992
34.736,7.88
34.74,7.776
34.744,7.752
34.748,7.936
34.752,8.212
34.756,8.556
34.76,9.22
34.764,10.024
34.768,10.752
34.772,11.144
34.776,11.008
34.78,9.876
34.784,8.604
34.788,7.836
34.792,7.692
34.796,7.92
34.8,7.948
34.804,7.884
34.808,7.904
34.812,8.048
34.816,8.116
34.82,7.976
34.824,7.916
34.828,8.004
34.832,8.096
34.836,8
34.84,7.9
34.844,7.992
34.848,8.144
34.852,8.052
34.856,7.936
34.86,7.988
34.864,8.148
34.868,8.104
34.872,7.96
34.876,8.008
34.88,8.16
34.884,8.164
34.888,8.036
34.892,8.048
34.896,8.176
34.9,8.196
34.904,8.104
34.908,8.08
34.912,8.216
34.916,8.26
34.92,8.216
34.924,8.16
34.928,8.268
34.932,8.36
34.936,8.316
34.94,8.24
34.944,8.316
34.948,8.468
34.952,8.468
34.956,8.348
34.96,8.444
34.964,8.612
34.968,8.624
34.972,8.552
34.976,8.616
34.98,8.812
34.984,8.84
34.988,8.776
34.992,8.844
34.996,9
35,9.072
35.004,8.984
35.008,8.968
35.012,9.132
35.016,9.2
35.02,9.088
35.024,8.98
35.028,8.996
35.032,8.988
35.036,8.812
35.04,8.58
35.044,8.556
35.048,8.556
35.052,8.424
35.056,8.212
35.06,8.188
35.064,8.248
35.068,8.176
35.072,8.004
35.076,8.012
35.08,8.116
35.084,8.1
35.088,7.96
35.092,7.916
35.096,8.052
35.1,8.056
35.104,7.948
35.108,7.88
35.112,8.008
35.116,8.036
35.12,7.968
35.124,7.904
35.128,7.968
35.132,8.064
35.136,7.976
35.14,7.852
35.144,7.96
35.148,8.1
35.152,8
35.156,7.888
35.16,7.912
35.164,8.056
35.168,8.016
35.172,7.9
35.176,7.908
35.18,8.04
35.184,8.02
35.188,7.908
35.192,7.888
35.196,8.02
35.2,8.028
35.204,7.92
35.208,7.904
35.212,8.016
35.216,8.028
35.22,7.968
35.224,7.872
35.228,7.988
35.232,8.02
35.236,8.008
35.24,7.88
35.244,7.936
35.248,8.028
35.252,7.98
35.256,7.868
35.26,7.892
35.264,8.012
35.268,8.012
35.272,7.876
35.276,7.876
35.28,8.016
35.284,7.992
35.288,7.904
35.292,7.868
35.296,7.976
35.3,7.98
35.304,7.892
35.308,7.868
35.312,7.972
35.316,7.992
35.32,7.924
35.324,7.856
35.328,7.94
35.332,7.98
35.336,7.956
35.34,7.872
35.344,7.896
35.348,8.004
35.352,7.976
35.356,7.852
35.36,7.896
35.364,7.976
35.368,7.976
35.372,7.856
35.376,7.84
35.38,8.004
35.384,7.988
35.388,7.884
35.392,7.864
35.396,7.984
35.4,8.012
35.404,7.896
35.408,7.84
35.412,7.944
35.416,8
35.42,7.964
35.424,7.896
35.428,7.988
35.432,8.084
35.436,8.06
35.44,7.992
35.444,8.064
35.448,8.204
35.452,8.16
35.456,7.992
35.46,8.016
35.464,8.124
35.468,8.108
35.472,7.972
35.476,7.988
35.48,8.068
35.484,8.02
35.488,7.868
35.492,7.828
35.496,7.924
35.5,7.964
35.504,7.82
35.508,7.784
35.512,7.876
35.516,7.94
35.52,7.856
35.524,7.76
35.528,7.868
35.532,7.948
35.536,7.888
35.54,7.76
35.544,7.752
35.548,7.896
35.552,8.076
35.556,8.352
35.56,8.956
35.564,9.74
35.568,10.468
35.572,10.924
35.576,11.104
35.58,10.16
35.584,8.84
35.588,7.94
35.592,7.7
35.596,7.876
35.6,7.908
35.604,7.868
35.608,7.912
35.612,8.016
35.616,8.052
35.62,7.944
35.624,7.86
35.628,7.94
35.632,8.032
35.636,7.952
35.64,7.86
35.644,7.916
35.648,8.064
35.652,8
35.656,7.896
35.66,7.928
35.664,8.084
35.668,8.068
35.672,7.948
35.676,7.98
35.68,8.112
35.684,8.112
35.688,7.98
35.692,8.008
35.696,8.116
35.7,8.14
35.704,8.076
35.708,8.028
35.712,8.12
35.716,8.216
35.72,8.144
35.724,8.08
35.728,8.192
35.732,8.28
35.736,8.276
35.74,8.18
35.744,8.268
35.748,8.396
35.752,8.404
35.756,8.3
35.76,8.368
35.764,8.56
35.768,8.548
35.772,8.488
35.776,8.556
35.78,8.756
35.784,8.784
35.788,8.696
35.792,8.752
35.796,8.928
35.8,9.012
35.804,8.96
35.808,8.916
35.812,9.052
35.816,9.16
35.82,9.06
35.824,8.944
35.828,8.98
35.832,9.028
35.836,8.84
35.84,8.632
35.844,8.592
35.848,8.588
35.852,8.432
35.856,8.216
35.86,8.164
35.864,8.244
35.868,8.14
35.872,7.972
35.876,7.96
35.88,8.052
35.884,8.048
35.888,7.896
35.892,7.872
35.896,7.964
35.9,7.98
35.904,7.888
35.908,7.816
35.912,7.92
35.916,7.944
35.92,7.888
35.924,7.796
35.928,7.888
35.932,7.964
35.936,7.924
35.94,7.812
35.944,7.856
35.948,7.96
35.952,7.924
35.956,7.792
35.96,7.872
35.964,7.988
35.968,7.964
35.972,7.836
35.976,7.828
35.98,7.984
35.984,7.968
35.988,7.844
35.992,7.816
35.996,7.94
36,7.988
36.004,7.88
36.008,7.816
36.012,7.904
36.016,7.972
36.02,7.904
36.024,7.808
36.028,7.9
36.032,7.996
36.036,7.9
36.04,7.784
36.044,7.868
36.048,7.976
36.052,7.912
36.056,7.776
36.06,7.8
36.064,7.976
36.068,7.928
36.072,7.82
36.076,7.776
36.08,7.948
36.084,7.924
36.088,7.824
36.092,7.764
36.096,7.904
36.1,7.936
36.104,7.816
36.108,7.764
36.112,7.852
36.116,7.924
36.12,7.864
36.124,7.744
36.128,7.824
36.132,7.948
36.136,7.86
36.14,7.756
36.144,7.796
36.148,7.92
36.152,7.892
36.156,7.764
36.16,7.808
36.164,7.92
36.168,7.892
36.172,7.764
36.176,7.796
36.18,7.9
36.184,7.908
36.188,7.8
36.192,7.752
36.196,7.88
36.2,7.9
36.204,7.828
36.208,7.748
36.212,7.848
36.216,7.928
36.22,7.832
36.224,7.76
36.228,7.844
36.232,7.936
36.236,7.852
36.24,7.752
36.244,7.792
36.248,7.896
36.252,7.848
36.256,7.732
36.26,7.788
36.264,7.964
36.268,7.948
36.272,7.856
36.276,7.876
36.28,8.004
36.284,8.04
36.288,7.976
36.292,7.984
36.296,8.104
36.3,8.084
36.304,7.976
36.308,7.876
36.312,7.972
36.316,8.044
36.32,7.94
36.324,7.848
36.328,7.884
36.332,7.96
36.336,7.876
36.34,7.736
36.344,7.792
36.348,7.872
36.352,7.84
36.356,7.712
36.36,7.756
36.364,7.876
36.368,7.856
36.372,7.736
36.376,7.74
36.38,7.876
36.384,7.868
36.388,7.692
36.392,7.616
36.396,7.916
36.4,8.308
36.404,8.68
36.408,9.2
36.412,10.04
36.416,10.784
36.42,11.132
36.424,10.488
36.428,9.204
36.432,8.256
36.436,7.74
36.44,7.608
36.444,7.744
36.448,7.888
36.452,7.94
36.456,7.82
36.46,7.888
36.464,7.988
36.468,7.976
36.472,7.84
36.476,7.876
36.48,7.976
36.484,7.988
36.488,7.888
36.492,7.828
36.496,7.968
36.5,8.008
36.504,7.892
36.508,7.856
36.512,7.988
36.516,8.04
36.52,7.988
36.524,7.9
36.528,8.008
36.532,8.108
36.536,8.06
36.54,7.924
36.544,8.04
36.548,8.12
36.552,8.088
36.556,7.996
36.56,8.072
36.564,8.2
36.568,8.18
36.572,8.072
36.576,8.104
36.58,8.252
36.584,8.272
36.588,8.22
36.592,8.228
36.596,8.36
36.6,8.416
36.604,8.372
36.608,8.316
36.612,8.492
36.616,8.576
36.62,8.556
36.624,8.528
36.628,8.692
36.632,8.844
36.636,8.812
36.64,8.732
36.644,8.844
36.648,9.04
36.652,9.052
36.656,8.944
36.66,9.004
36.664,9.152
36.668,9.108
36.672,8.96
36.676,8.912
36.68,8.94
36.684,8.86
36.688,8.608
36.692,8.464
36.696,8.496
36.7,8.436
36.704,8.252
36.708,8.112
36.712,8.148
36.716,8.196
36.72,8.056
36.724,7.928
36.728,7.956
36.732,8.032
36.736,7.988
36.74,7.856
36.744,7.868
36.748,7.992
36.752,7.948
36.756,7.844
36.76,7.848
36.764,7.98
36.768,7.948
36.772,7.836
36.776,7.8
36.78,7.952
36.784,7.972
36.788,7.872
36.792,7.816
36.796,7.932
36.8,7.972
36.804,7.852
36.808,7.816
36.812,7.868
36.816,7.98
36.82,7.916
36.824,7.844
36.828,7.888
36.832,7.952
36.836,7.944
36.84,7.824
36.844,7.892
36.848,7.976
36.852,7.98
36.856,7.868
36.86,7.86
36.864,7.964
36.868,7.984
36.872,7.856
36.876,7.836
36.88,7.948
36.884,7.98
36.888,7.872
36.892,7.816
36.896,7.908
36.9,7.96
36.904,7.86
36.908,7.804
36.912,7.856
36.916,7.96
36.92,7.924
36.924,7.804
36.928,7.864
36.932,7.94
36.936,7.904
36.94,7.796
36.944,7.832
36.948,7.94
36.952,7.952
36.956,7.812
36.96,7.816
36.964,7.92
36.968,7.932
36.972,7.812
36.976,7.788
36.98,7.912
36.984,7.96
36.988,7.844
36.992,7.788
36.996,7.892
37,7.952
37.004,7.852
37.008,7.796
37.012,7.868
37.016,7.952
37.02,7.896
37.024,7.784
37.028,7.848
37.032,7.952
37.036,7.908
37.04,7.788
37.044,7.828
37.048,7.936
37.052,7.912
37.056,7.804
37.06,7.812
37.064,7.944
37.068,7.912
37.072,7.784
37.076,7.764
37.08,7.888
37.084,7.936
37.088,7.86
37.092,7.832
37.096,7.956
37.1,8.012
37.104,7.944
37.108,7.916
37.112,8.044
37.116,8.16
37.12,8.084
37.124,7.988
37.128,8.016
37.132,8.124
37.136,8.028
37.14,7.92
37.144,7.944
37.148,8.064
37.152,8.008
37.156,7.844
37.16,7.82
37.164,7.936
37.168,7.892
37.172,7.768
37.176,7.76
37.18,7.888
37.184,7.908
37.188,7.792
37.192,7.752
37.196,7.848
37.2,7.908
37.204,7.82
37.208,7.772
37.212,7.816
37.216,7.828
37.22,7.8
37.224,7.968
37.228,8.452
37.232,9.092
37.236,9.676
37.24,10.396
37.244,10.988
37.248,11.128
37.252,9.916
37.256,8.568
37.26,7.832
37.264,7.736
37.268,7.832
37.272,7.72
37.276,7.808
37.28,7.956
37.284,8.012
37.288,7.94
37.292,7.912
37.296,7.948
37.3,8.032
37.304,7.928
37.308,7.876
37.312,7.96
37.316,8.024
37.32,7.988
37.324,7.876
37.328,7.952
37.332,8.08
37.336,8.008
37.34,7.912
37.344,7.968
37.348,8.1
37.352,8.068
37.356,7.98
37.36,7.98
37.364,8.148
37.368,8.152
37.372,8.04
37.376,8.048
37.38,8.196
37.384,8.192
37.388,8.112
37.392,8.088
37.396,8.232
37.4,8.292
37.404,8.22
37.408,8.172
37.412,8.284
37.416,8.36
37.42,8.324
37.424,8.276
37.428,8.396
37.432,8.532
37.436,8.524
37.44,8.476
37.444,8.556
37.448,8.72
37.452,8.712
37.456,8.684
37.46,8.732
37.464,8.92
37.468,8.972
37.472,8.916
37.476,8.936
37.48,9.08
37.484,9.14
37.488,9.056
37.492,9.02
37.496,9.088
37.5,9.124
37.504,8.94
37.508,8.796
37.512,8.752
37.516,8.708
37.52,8.52
37.524,8.34
37.528,8.288
37.532,8.332
37.536,8.192
37.54,8.068
37.544,8.064
37.548,8.128
37.552,8.06
37.556,7.892
37.56,7.916
37.564,8.028
37.568,8.004
37.572,7.9
37.576,7.88
37.58,7.988
37.584,7.976
37.588,7.884
37.592,7.836
37.596,7.936
37.6,7.972
37.604,7.912
37.608,7.856
37.612,7.924
37.616,7.98
37.62,7.912
37.624,7.836
37.628,7.884
37.632,7.992
37.636,7.96
37.64,7.848
37.644,7.896
37.648,8.004
37.652,7.996
37.656,7.848
37.66,7.864
37.664,7.988
37.668,7.984
37.672,7.868
37.676,7.848
37.68,7.972
37.684,7.968
37.688,7.884
37.692,7.848
37.696,7.956
37.7,7.992
37.704,7.9
37.708,7.856
37.712,7.912
37.716,7.984
37.72,7.928
37.724,7.82
37.728,7.868
37.732,8.004
37.736,7.948
37.74,7.84
37.744,7.88
37.748,7.996
37.752,7.952
37.756,7.82
37.76,7.828
37.764,7.96
37.768,7.988
37.772,7.868
37.776,7.868
37.78,7.944
37.784,7.98
37.788,7.836
37.792,7.832
37.796,7.94
37.8,7.984
37.804,7.88
37.808,7.82
37.812,7.9
37.816,7.976
37.82,7.912
37.824,7.804
37.828,7.868
37.832,7.976
37.836,7.976
37.84,7.864
37.844,7.928
37.848,8.064
37.852,8.04
37.856,7.928
37.86,7.988
37.864,8.164
37.868,8.164
37.872,8.008
37.876,7.984
37.88,8.1
37.884,8.112
37.888,7.98
37.892,7.932
37.896,8.024
37.9,8.016
37.904,7.908
37.908,7.84
37.912,7.892
37.916,7.92
37.92,7.84
37.924,7.804
37.928,7.864
37.932,7.932
37.936,7.876
37.94,7.78
37.944,7.824
37.948,7.944
37.952,7.896
37.956,7.772
37.96,7.724
37.964,7.78
37.968,8.004
37.972,8.292
37.976,8.876
37.98,9.664
37.984,10.48
37.988,10.928
37.992,11.108
37.996,10.236
38,9.016
38.004,8.024
38.008,7.612
38.012,7.644
38.016,7.836
38.02,7.848
38.024,7.82
38.028,7.932
38.032,8.028
38.036,7.992
38.04,7.888
38.044,7.896
38.048,8.044
38.052,8.012
38.056,7.88
38.06,7.908
38.064,8.036
38.068,8.032
38.072,7.952
38.076,7.924
38.08,8.04
38.084,8.104
38.088,8.012
38.092,7.956
38.096,8.072
38.1,8.148
38.104,8.076
38.108,7.996
38.112,8.112
38.116,8.192
38.12,8.152
38.124,8.064
38.128,8.152
38.132,8.252
38.136,8.216
38.14,8.12
38.144,8.172
38.148,8.304
38.152,8.304
38.156,8.244
38.16,8.276
38.164,8.416
38.168,8.452
38.172,8.36
38.176,8.392
38.18,8.548
38.184,8.608
38.188,8.568
38.192,8.584
38.196,8.708
38.2,8.828
38.204,8.812
38.208,8.816
38.212,8.944
38.216,9.044
38.22,9.02
38.224,9.012
38.228,9.064
38.232,9.184
38.236,9.116
38.24,8.988
38.244,8.972
38.248,9.004
38.252,8.844
38.256,8.648
38.26,8.528
38.264,8.536
38.268,8.436
38.272,8.232
38.276,8.152
38.28,8.184
38.284,8.2
38.288,8.052
38.292,7.984
38.296,8.064
38.3,8.072
38.304,7.984
38.308,7.896
38.312,7.956
38.316,8.036
38.32,7.948
38.324,7.884
38.328,7.92
38.332,8.016
38.336,7.976
38.34,7.872
38.344,7.908
38.348,8.004
38.352,7.996
38.356,7.908
38.36,7.892
38.364,7.988
38.368,7.996
38.372,7.876
38.376,7.9
38.38,7.98
38.384,8.016
38.388,7.948
38.392,7.908
38.396,7.984
38.4,8.048
38.404,7.94
38.408,7.9
38.412,7.972
38.416,8.036
38.42,7.98
38.424,7.892
38.428,7.904
38.432,8.032
38.436,7.992
38.44,7.864
38.444,7.92
38.448,7.988
38.452,7.972
38.456,7.892
38.46,7.88
38.464,7.996
38.468,7.992
38.472,7.876
38.476,7.86
38.48,7.972
38.484,7.992
38.488,7.912
38.492,7.868
38.496,7.94
38.5,8.004
38.504,7.92
38.508,7.848
38.512,7.916
38.516,7.992
38.52,7.936
38.524,7.856
38.528,7.904
38.532,7.968
38.536,7.956
38.54,7.84
38.544,7.872
38.548,8.028
38.552,8.036
38.556,7.948
38.56,7.944
38.564,8.08
38.568,8.112
38.572,8.008
38.576,8.02
38.58,8.144
38.584,8.18
38.588,8.068
38.592,7.992
38.596,8.048
38.6,8.096
38.604,8.008
38.608,7.94
38.612,8.004
38.616,8.024
38.62,7.94
38.624,7.824
38.628,7.868
38.632,7.932
38.636,7.88
38.64,7.8
38.644,7.808
38.648,7.924
38.652,7.92
38.656,7.816
38.66,7.792
38.664,7.908
38.668,7.904
38.672,7.752
38.676,7.636
38.68,7.868
38.684,8.264
38.688,8.696
38.692,9.284
38.696,10.124
38.7,10.932
38.704,11.34
38.708,10.884
38.712,9.552
38.716,8.368
38.72,7.816
38.724,7.716
38.728,7.824
38.732,7.948
38.736,7.944
38.74,7.908
38.744,7.94
38.748,8.024
38.752,8.032
38.756,7.88
38.76,7.872
38.764,7.984
38.768,8.012
38.772,7.908
38.776,7.908
38.78,8.024
38.784,8.036
38.788,7.984
38.792,7.936
38.796,8.016
38.8,8.068
38.804,8.036
38.808,7.956
38.812,8.012
38.816,8.128
38.82,8.08
38.824,8.016
38.828,8.064
38.832,8.168
38.836,8.116
38.84,8.076
38.844,8.08
38.848,8.232
38.852,8.212
38.856,8.136
38.86,8.156
38.864,8.284
38.868,8.336
38.872,8.236
38.876,8.26
38.88,8.4
38.884,8.464
38.888,8.396
38.892,8.388
38.896,8.524
38.9,8.596
38.904,8.6
38.908,8.596
38.912,8.72
38.916,8.856
38.92,8.852
38.924,8.82
38.928,8.932
38.932,9.064
38.936,9.04
38.94,9.004
38.944,9.04
38.948,9.168
38.952,9.096
38.956,8.956
38.96,8.88
38.964,8.884
38.968,8.808
38.972,8.576
38.976,8.492
38.98,8.464
38.984,8.424
38.988,8.268
38.992,8.152
38.996,8.172
39,8.184
39.004,8.084
39.008,8.024
39.012,8.032
39.016,8.088
39.02,8.032
39.024,7.944
39.028,7.948
39.032,8.036
39.036,7.988
39.04,7.912
39.044,7.932
39.048,8.036
39.052,8.024
39.056,7.904
39.06,7.916
39.064,8.02
39.068,8.008
39.072,7.916
39.076,7.908
39.08,8.024
39.084,8.048
39.088,7.976
39.092,7.944
39.096,8.016
39.1,8.056
39.104,8
39.108,7.928
39.112,7.98
39.116,8.048
39.12,8.016
39.124,7.92
39.128,7.936
39.132,8.044
